# EGG_ProjY_E1632.0(5.0)_B1615.5(1.5)_B1654.0(1.0)
# X axis : Energy (keV) [Y axis]
# Y axis : Counts/1 keV
# N Bins : 12000
# X Min : 0
# X Max : 12000
# X value at the center of the bins
0.5 0
1.5 0
2.5 0
3.5 0
4.5 0
5.5 19
6.5 13
7.5 52
8.5 54
9.5 83
10.5 66
11.5 62
12.5 73
13.5 95
14.5 181
15.5 236
16.5 331
17.5 428
18.5 532
19.5 685
20.5 834
21.5 1138
22.5 1324
23.5 1708
24.5 2268
25.5 2754
26.5 3179
27.5 3562
28.5 4253
29.5 4599
30.5 5620
31.5 6197
32.5 6560
33.5 6985
34.5 7281
35.5 7961
36.5 8278
37.5 8498
38.5 8754
39.5 8861
40.5 9508
41.5 9782
42.5 10235
43.5 9949
44.5 9718
45.5 9618
46.5 10031
47.5 9902
48.5 9844
49.5 10246
50.5 9809
51.5 9784
52.5 10032
53.5 9864
54.5 9919
55.5 9350
56.5 9602
57.5 9890
58.5 10737
59.5 11226
60.5 9993
61.5 9089
62.5 8864
63.5 9094
64.5 8844
65.5 8823
66.5 9200
67.5 9233
68.5 8742
69.5 8378
70.5 8422
71.5 8216
72.5 8540
73.5 8993
74.5 10121
75.5 10064
76.5 10945
77.5 11444
78.5 9010
79.5 7933
80.5 7290
81.5 7336
82.5 7162
83.5 6957
84.5 6948
85.5 7360
86.5 7979
87.5 8538
88.5 7553
89.5 6989
90.5 7111
91.5 6800
92.5 6191
93.5 6318
94.5 6368
95.5 6089
96.5 5886
97.5 5965
98.5 5959
99.5 5845
100.5 5583
101.5 5784
102.5 5773
103.5 5697
104.5 5483
105.5 5373
106.5 5857
107.5 5669
108.5 5710
109.5 5628
110.5 5591
111.5 5352
112.5 5423
113.5 5266
114.5 5541
115.5 5375
116.5 5290
117.5 5382
118.5 5459
119.5 5130
120.5 5135
121.5 5098
122.5 5146
123.5 4797
124.5 4683
125.5 4920
126.5 4930
127.5 4994
128.5 4913
129.5 5192
130.5 5133
131.5 5325
132.5 4893
133.5 5210
134.5 5143
135.5 4998
136.5 4818
137.5 4789
138.5 4668
139.5 5520
140.5 5143
141.5 5190
142.5 5773
143.5 5276
144.5 5710
145.5 5238
146.5 5231
147.5 5008
148.5 5181
149.5 4956
150.5 4938
151.5 4804
152.5 4673
153.5 4769
154.5 4241
155.5 3887
156.5 3961
157.5 3907
158.5 4203
159.5 4201
160.5 4330
161.5 3968
162.5 3570
163.5 3503
164.5 3480
165.5 4177
166.5 4413
167.5 4539
168.5 4506
169.5 4246
170.5 4483
171.5 4260
172.5 4445
173.5 4763
174.5 5338
175.5 4958
176.5 4407
177.5 4581
178.5 4417
179.5 4398
180.5 4776
181.5 4611
182.5 4487
183.5 4099
184.5 4288
185.5 4326
186.5 4248
187.5 4119
188.5 4095
189.5 3884
190.5 3777
191.5 3637
192.5 3661
193.5 3523
194.5 3543
195.5 3818
196.5 4190
197.5 4759
198.5 4555
199.5 4378
200.5 4428
201.5 3595
202.5 3972
203.5 3394
204.5 3803
205.5 3341
206.5 3838
207.5 3466
208.5 4233
209.5 3853
210.5 4269
211.5 4377
212.5 4023
213.5 3893
214.5 3748
215.5 3421
216.5 3348
217.5 2319
218.5 2331
219.5 2668
220.5 2949
221.5 3525
222.5 3697
223.5 3706
224.5 3813
225.5 3421
226.5 3376
227.5 3135
228.5 2887
229.5 2701
230.5 1719
231.5 765
232.5 -267
233.5 405
234.5 2021
235.5 3889
236.5 4528
237.5 5080
238.5 5044
239.5 5212
240.5 4948
241.5 4702
242.5 5052
243.5 4187
244.5 4092
245.5 3564
246.5 3537
247.5 3641
248.5 4007
249.5 4473
250.5 5130
251.5 5716
252.5 5622
253.5 5378
254.5 5054
255.5 4478
256.5 4047
257.5 3924
258.5 3743
259.5 4003
260.5 3623
261.5 3257
262.5 3148
263.5 3015
264.5 2916
265.5 2930
266.5 2600
267.5 2477
268.5 1756
269.5 513
270.5 49
271.5 -231
272.5 479
273.5 1370
274.5 2384
275.5 2314
276.5 2717
277.5 3144
278.5 3057
279.5 3130
280.5 2676
281.5 2869
282.5 2443
283.5 2623
284.5 2444
285.5 2313
286.5 1963
287.5 2051
288.5 1915
289.5 2156
290.5 2445
291.5 2642
292.5 2829
293.5 2702
294.5 2128
295.5 2312
296.5 2186
297.5 2334
298.5 2752
299.5 2540
300.5 2852
301.5 2345
302.5 2879
303.5 2666
304.5 2794
305.5 2880
306.5 3397
307.5 3426
308.5 3396
309.5 3399
310.5 3592
311.5 3434
312.5 3301
313.5 3617
314.5 3337
315.5 2930
316.5 2879
317.5 2552
318.5 2365
319.5 2776
320.5 2804
321.5 2811
322.5 2472
323.5 2295
324.5 1915
325.5 1572
326.5 1224
327.5 1489
328.5 1814
329.5 1825
330.5 2268
331.5 2486
332.5 2334
333.5 2111
334.5 1736
335.5 1735
336.5 1981
337.5 1921
338.5 1924
339.5 1850
340.5 1957
341.5 1902
342.5 1776
343.5 1501
344.5 1810
345.5 1801
346.5 1717
347.5 1858
348.5 2203
349.5 2143
350.5 2378
351.5 2089
352.5 2167
353.5 1985
354.5 1992
355.5 2231
356.5 2360
357.5 2287
358.5 2521
359.5 2322
360.5 2566
361.5 2484
362.5 2331
363.5 2400
364.5 2622
365.5 2195
366.5 2425
367.5 2185
368.5 2321
369.5 2390
370.5 2196
371.5 2058
372.5 2038
373.5 1943
374.5 2239
375.5 1779
376.5 1856
377.5 1478
378.5 1721
379.5 1557
380.5 1561
381.5 1653
382.5 1835
383.5 1700
384.5 1465
385.5 1616
386.5 1684
387.5 1707
388.5 1651
389.5 1611
390.5 1602
391.5 1795
392.5 1806
393.5 1555
394.5 1708
395.5 1780
396.5 1732
397.5 1555
398.5 1687
399.5 1628
400.5 1740
401.5 2094
402.5 2878
403.5 5905
404.5 5190
405.5 3156
406.5 2015
407.5 1568
408.5 1693
409.5 1880
410.5 1710
411.5 1471
412.5 1588
413.5 1489
414.5 1555
415.5 1893
416.5 1642
417.5 1726
418.5 1595
419.5 1609
420.5 1681
421.5 1739
422.5 1576
423.5 1581
424.5 1634
425.5 1588
426.5 1583
427.5 1738
428.5 1663
429.5 1600
430.5 1558
431.5 1294
432.5 1424
433.5 1424
434.5 1300
435.5 1355
436.5 1442
437.5 1477
438.5 1313
439.5 1667
440.5 1711
441.5 1521
442.5 1561
443.5 1623
444.5 1644
445.5 1485
446.5 1474
447.5 1484
448.5 1537
449.5 1641
450.5 1556
451.5 1382
452.5 1700
453.5 1867
454.5 1834
455.5 1625
456.5 1806
457.5 1719
458.5 1808
459.5 1606
460.5 1666
461.5 1469
462.5 1665
463.5 1757
464.5 1966
465.5 1597
466.5 1494
467.5 1518
468.5 1682
469.5 1451
470.5 1621
471.5 2130
472.5 2131
473.5 2797
474.5 2957
475.5 2856
476.5 3279
477.5 3072
478.5 3197
479.5 2746
480.5 2688
481.5 2458
482.5 2376
483.5 2232
484.5 1685
485.5 1597
486.5 1237
487.5 1008
488.5 1035
489.5 723
490.5 1026
491.5 1051
492.5 1141
493.5 772
494.5 425
495.5 113
496.5 48
497.5 569
498.5 806
499.5 1135
500.5 1174
501.5 1370
502.5 1425
503.5 1405
504.5 1462
505.5 1606
506.5 1779
507.5 3062
508.5 4959
509.5 9444
510.5 12529
511.5 12012
512.5 8407
513.5 4908
514.5 3743
515.5 3073
516.5 3009
517.5 2667
518.5 2514
519.5 2271
520.5 2289
521.5 2115
522.5 1785
523.5 1409
524.5 1293
525.5 940
526.5 726
527.5 733
528.5 664
529.5 822
530.5 814
531.5 826
532.5 531
533.5 31
534.5 -315
535.5 -230
536.5 390
537.5 832
538.5 982
539.5 1138
540.5 967
541.5 1121
542.5 1092
543.5 1046
544.5 921
545.5 936
546.5 902
547.5 1073
548.5 1179
549.5 1077
550.5 1444
551.5 1065
552.5 1096
553.5 1224
554.5 1434
555.5 1233
556.5 1133
557.5 1042
558.5 1170
559.5 1138
560.5 1196
561.5 1316
562.5 1298
563.5 1437
564.5 1107
565.5 571
566.5 -233
567.5 -1108
568.5 -1606
569.5 -1228
570.5 -20
571.5 818
572.5 1023
573.5 1242
574.5 1247
575.5 993
576.5 1126
577.5 1030
578.5 1222
579.5 907
580.5 1046
581.5 1351
582.5 1545
583.5 1915
584.5 2249
585.5 2653
586.5 3338
587.5 3681
588.5 4091
589.5 4136
590.5 4124
591.5 4024
592.5 3912
593.5 3614
594.5 3626
595.5 3177
596.5 2471
597.5 1567
598.5 1123
599.5 1427
600.5 1360
601.5 1134
602.5 932
603.5 563
604.5 -368
605.5 -1590
606.5 -2371
607.5 -2116
608.5 -859
609.5 -138
610.5 635
611.5 1066
612.5 1101
613.5 1065
614.5 1265
615.5 985
616.5 1224
617.5 1046
618.5 1137
619.5 1283
620.5 1054
621.5 1214
622.5 1049
623.5 1266
624.5 892
625.5 967
626.5 1113
627.5 1158
628.5 1916
629.5 1321
630.5 1207
631.5 1087
632.5 990
633.5 967
634.5 1027
635.5 1138
636.5 1205
637.5 1396
638.5 1308
639.5 1104
640.5 1198
641.5 994
642.5 1134
643.5 1042
644.5 1194
645.5 1150
646.5 1033
647.5 1051
648.5 1725
649.5 3606
650.5 6322
651.5 4681
652.5 1831
653.5 1210
654.5 1333
655.5 1462
656.5 1424
657.5 1148
658.5 1170
659.5 1096
660.5 936
661.5 889
662.5 991
663.5 1193
664.5 1241
665.5 1084
666.5 1045
667.5 1124
668.5 1132
669.5 1100
670.5 1126
671.5 953
672.5 1057
673.5 937
674.5 945
675.5 900
676.5 1057
677.5 1075
678.5 975
679.5 700
680.5 934
681.5 881
682.5 907
683.5 846
684.5 921
685.5 883
686.5 877
687.5 947
688.5 983
689.5 885
690.5 1028
691.5 962
692.5 1115
693.5 1057
694.5 870
695.5 981
696.5 1130
697.5 1025
698.5 1062
699.5 1039
700.5 1018
701.5 973
702.5 894
703.5 1046
704.5 1148
705.5 1163
706.5 1064
707.5 1181
708.5 953
709.5 1064
710.5 962
711.5 769
712.5 980
713.5 941
714.5 832
715.5 981
716.5 905
717.5 947
718.5 1007
719.5 1067
720.5 843
721.5 935
722.5 865
723.5 983
724.5 887
725.5 1458
726.5 1793
727.5 1495
728.5 969
729.5 885
730.5 1056
731.5 945
732.5 707
733.5 993
734.5 788
735.5 907
736.5 926
737.5 1162
738.5 1013
739.5 986
740.5 885
741.5 1050
742.5 1009
743.5 821
744.5 854
745.5 958
746.5 975
747.5 947
748.5 973
749.5 983
750.5 1007
751.5 873
752.5 885
753.5 814
754.5 1124
755.5 877
756.5 815
757.5 1004
758.5 905
759.5 1329
760.5 2390
761.5 2318
762.5 1586
763.5 1208
764.5 954
765.5 825
766.5 965
767.5 862
768.5 905
769.5 886
770.5 772
771.5 862
772.5 885
773.5 1010
774.5 962
775.5 883
776.5 1026
777.5 775
778.5 1012
779.5 920
780.5 947
781.5 863
782.5 990
783.5 852
784.5 771
785.5 816
786.5 939
787.5 1379
788.5 1529
789.5 1097
790.5 885
791.5 891
792.5 839
793.5 1043
794.5 980
795.5 1004
796.5 879
797.5 939
798.5 1136
799.5 916
800.5 783
801.5 837
802.5 998
803.5 904
804.5 1144
805.5 1157
806.5 1242
807.5 1342
808.5 1121
809.5 993
810.5 997
811.5 752
812.5 1066
813.5 733
814.5 908
815.5 917
816.5 852
817.5 908
818.5 850
819.5 1039
820.5 875
821.5 1172
822.5 1013
823.5 951
824.5 1082
825.5 892
826.5 834
827.5 755
828.5 732
829.5 1046
830.5 927
831.5 1133
832.5 1073
833.5 925
834.5 1032
835.5 1133
836.5 1075
837.5 1133
838.5 1096
839.5 1124
840.5 1138
841.5 1089
842.5 983
843.5 1081
844.5 1260
845.5 1079
846.5 1049
847.5 1071
848.5 1118
849.5 972
850.5 1131
851.5 972
852.5 977
853.5 961
854.5 948
855.5 871
856.5 1020
857.5 1149
858.5 1147
859.5 982
860.5 937
861.5 1024
862.5 860
863.5 888
864.5 1028
865.5 964
866.5 951
867.5 1244
868.5 1695
869.5 1716
870.5 1530
871.5 1169
872.5 1179
873.5 1075
874.5 1219
875.5 1092
876.5 1241
877.5 1550
878.5 1268
879.5 1106
880.5 1060
881.5 1088
882.5 1036
883.5 1020
884.5 1116
885.5 1105
886.5 1236
887.5 1181
888.5 1093
889.5 995
890.5 1096
891.5 1143
892.5 1086
893.5 1377
894.5 1132
895.5 1186
896.5 1247
897.5 1244
898.5 857
899.5 1104
900.5 943
901.5 1078
902.5 1186
903.5 1129
904.5 1225
905.5 1141
906.5 1213
907.5 1155
908.5 1179
909.5 1327
910.5 1231
911.5 1237
912.5 1125
913.5 1299
914.5 1203
915.5 1212
916.5 1119
917.5 1204
918.5 1168
919.5 1111
920.5 1043
921.5 1169
922.5 1040
923.5 1195
924.5 1163
925.5 1184
926.5 1110
927.5 1205
928.5 966
929.5 997
930.5 1151
931.5 1005
932.5 1131
933.5 1176
934.5 1081
935.5 1386
936.5 1274
937.5 1151
938.5 1109
939.5 1101
940.5 1161
941.5 1122
942.5 1203
943.5 1190
944.5 1345
945.5 1057
946.5 971
947.5 1032
948.5 919
949.5 1059
950.5 777
951.5 932
952.5 906
953.5 895
954.5 956
955.5 933
956.5 987
957.5 916
958.5 975
959.5 918
960.5 942
961.5 693
962.5 839
963.5 1071
964.5 922
965.5 969
966.5 993
967.5 1019
968.5 819
969.5 959
970.5 914
971.5 921
972.5 765
973.5 850
974.5 891
975.5 993
976.5 799
977.5 756
978.5 976
979.5 742
980.5 799
981.5 894
982.5 903
983.5 906
984.5 821
985.5 768
986.5 936
987.5 778
988.5 851
989.5 704
990.5 795
991.5 692
992.5 787
993.5 642
994.5 822
995.5 735
996.5 750
997.5 803
998.5 792
999.5 792
1000.5 1333
1001.5 2014
1002.5 1969
1003.5 1151
1004.5 850
1005.5 668
1006.5 757
1007.5 765
1008.5 718
1009.5 713
1010.5 748
1011.5 642
1012.5 778
1013.5 881
1014.5 941
1015.5 1156
1016.5 1562
1017.5 1400
1018.5 1015
1019.5 751
1020.5 823
1021.5 668
1022.5 764
1023.5 1056
1024.5 1566
1025.5 1077
1026.5 921
1027.5 630
1028.5 635
1029.5 668
1030.5 560
1031.5 630
1032.5 690
1033.5 613
1034.5 590
1035.5 665
1036.5 569
1037.5 549
1038.5 727
1039.5 690
1040.5 635
1041.5 534
1042.5 773
1043.5 615
1044.5 530
1045.5 601
1046.5 663
1047.5 630
1048.5 689
1049.5 798
1050.5 876
1051.5 740
1052.5 596
1053.5 606
1054.5 627
1055.5 554
1056.5 594
1057.5 688
1058.5 579
1059.5 587
1060.5 626
1061.5 511
1062.5 515
1063.5 715
1064.5 839
1065.5 749
1066.5 509
1067.5 545
1068.5 467
1069.5 538
1070.5 615
1071.5 661
1072.5 1587
1073.5 2819
1074.5 3642
1075.5 1876
1076.5 758
1077.5 577
1078.5 509
1079.5 409
1080.5 546
1081.5 540
1082.5 597
1083.5 387
1084.5 481
1085.5 538
1086.5 484
1087.5 484
1088.5 531
1089.5 551
1090.5 550
1091.5 573
1092.5 443
1093.5 571
1094.5 569
1095.5 558
1096.5 562
1097.5 529
1098.5 537
1099.5 471
1100.5 448
1101.5 441
1102.5 428
1103.5 441
1104.5 525
1105.5 438
1106.5 567
1107.5 689
1108.5 476
1109.5 557
1110.5 511
1111.5 482
1112.5 491
1113.5 432
1114.5 517
1115.5 502
1116.5 564
1117.5 569
1118.5 457
1119.5 624
1120.5 659
1121.5 659
1122.5 994
1123.5 3060
1124.5 10594
1125.5 25233
1126.5 28092
1127.5 14033
1128.5 3192
1129.5 1019
1130.5 551
1131.5 439
1132.5 442
1133.5 330
1134.5 373
1135.5 366
1136.5 426
1137.5 372
1138.5 520
1139.5 429
1140.5 394
1141.5 467
1142.5 326
1143.5 432
1144.5 405
1145.5 403
1146.5 416
1147.5 349
1148.5 462
1149.5 484
1150.5 362
1151.5 589
1152.5 626
1153.5 1473
1154.5 5086
1155.5 18071
1156.5 40992
1157.5 39632
1158.5 16915
1159.5 3948
1160.5 969
1161.5 464
1162.5 384
1163.5 388
1164.5 440
1165.5 529
1166.5 433
1167.5 426
1168.5 285
1169.5 233
1170.5 275
1171.5 397
1172.5 285
1173.5 335
1174.5 350
1175.5 419
1176.5 273
1177.5 259
1178.5 398
1179.5 330
1180.5 707
1181.5 1623
1182.5 2733
1183.5 2690
1184.5 1200
1185.5 558
1186.5 445
1187.5 472
1188.5 384
1189.5 390
1190.5 349
1191.5 312
1192.5 349
1193.5 287
1194.5 432
1195.5 336
1196.5 434
1197.5 397
1198.5 337
1199.5 296
1200.5 351
1201.5 457
1202.5 469
1203.5 391
1204.5 495
1205.5 449
1206.5 428
1207.5 451
1208.5 326
1209.5 367
1210.5 289
1211.5 414
1212.5 252
1213.5 374
1214.5 388
1215.5 401
1216.5 309
1217.5 337
1218.5 365
1219.5 235
1220.5 310
1221.5 362
1222.5 338
1223.5 262
1224.5 356
1225.5 452
1226.5 395
1227.5 360
1228.5 406
1229.5 336
1230.5 389
1231.5 334
1232.5 324
1233.5 281
1234.5 380
1235.5 449
1236.5 231
1237.5 314
1238.5 285
1239.5 292
1240.5 258
1241.5 252
1242.5 436
1243.5 207
1244.5 257
1245.5 284
1246.5 204
1247.5 221
1248.5 314
1249.5 287
1250.5 123
1251.5 341
1252.5 283
1253.5 363
1254.5 166
1255.5 297
1256.5 251
1257.5 312
1258.5 285
1259.5 213
1260.5 495
1261.5 454
1262.5 326
1263.5 329
1264.5 265
1265.5 320
1266.5 384
1267.5 388
1268.5 309
1269.5 339
1270.5 305
1271.5 281
1272.5 166
1273.5 266
1274.5 275
1275.5 245
1276.5 294
1277.5 300
1278.5 262
1279.5 236
1280.5 378
1281.5 369
1282.5 570
1283.5 556
1284.5 316
1285.5 194
1286.5 283
1287.5 276
1288.5 258
1289.5 257
1290.5 224
1291.5 218
1292.5 336
1293.5 275
1294.5 323
1295.5 290
1296.5 386
1297.5 349
1298.5 233
1299.5 256
1300.5 279
1301.5 257
1302.5 260
1303.5 256
1304.5 257
1305.5 257
1306.5 312
1307.5 388
1308.5 398
1309.5 346
1310.5 350
1311.5 300
1312.5 171
1313.5 315
1314.5 349
1315.5 482
1316.5 418
1317.5 309
1318.5 372
1319.5 370
1320.5 313
1321.5 281
1322.5 230
1323.5 203
1324.5 314
1325.5 389
1326.5 332
1327.5 258
1328.5 311
1329.5 214
1330.5 375
1331.5 305
1332.5 376
1333.5 263
1334.5 245
1335.5 195
1336.5 193
1337.5 149
1338.5 231
1339.5 294
1340.5 283
1341.5 260
1342.5 284
1343.5 231
1344.5 266
1345.5 264
1346.5 201
1347.5 315
1348.5 359
1349.5 372
1350.5 422
1351.5 267
1352.5 323
1353.5 267
1354.5 338
1355.5 331
1356.5 273
1357.5 221
1358.5 353
1359.5 287
1360.5 287
1361.5 260
1362.5 204
1363.5 247
1364.5 292
1365.5 400
1366.5 419
1367.5 277
1368.5 274
1369.5 390
1370.5 297
1371.5 343
1372.5 279
1373.5 260
1374.5 332
1375.5 311
1376.5 342
1377.5 320
1378.5 215
1379.5 252
1380.5 240
1381.5 214
1382.5 293
1383.5 298
1384.5 257
1385.5 224
1386.5 367
1387.5 298
1388.5 358
1389.5 180
1390.5 229
1391.5 148
1392.5 250
1393.5 211
1394.5 308
1395.5 243
1396.5 301
1397.5 282
1398.5 293
1399.5 316
1400.5 298
1401.5 307
1402.5 408
1403.5 321
1404.5 242
1405.5 250
1406.5 249
1407.5 268
1408.5 286
1409.5 253
1410.5 300
1411.5 245
1412.5 271
1413.5 240
1414.5 422
1415.5 290
1416.5 365
1417.5 208
1418.5 344
1419.5 462
1420.5 479
1421.5 290
1422.5 166
1423.5 218
1424.5 341
1425.5 355
1426.5 491
1427.5 833
1428.5 1217
1429.5 1015
1430.5 540
1431.5 299
1432.5 272
1433.5 290
1434.5 346
1435.5 274
1436.5 217
1437.5 192
1438.5 230
1439.5 304
1440.5 276
1441.5 294
1442.5 323
1443.5 271
1444.5 248
1445.5 179
1446.5 300
1447.5 276
1448.5 211
1449.5 225
1450.5 204
1451.5 212
1452.5 248
1453.5 331
1454.5 249
1455.5 225
1456.5 249
1457.5 178
1458.5 238
1459.5 305
1460.5 218
1461.5 175
1462.5 153
1463.5 229
1464.5 177
1465.5 290
1466.5 264
1467.5 278
1468.5 257
1469.5 274
1470.5 193
1471.5 277
1472.5 233
1473.5 400
1474.5 418
1475.5 257
1476.5 215
1477.5 267
1478.5 265
1479.5 283
1480.5 345
1481.5 585
1482.5 503
1483.5 294
1484.5 288
1485.5 226
1486.5 328
1487.5 252
1488.5 246
1489.5 257
1490.5 227
1491.5 230
1492.5 251
1493.5 234
1494.5 316
1495.5 180
1496.5 261
1497.5 602
1498.5 1068
1499.5 1393
1500.5 1155
1501.5 450
1502.5 344
1503.5 206
1504.5 337
1505.5 292
1506.5 277
1507.5 308
1508.5 274
1509.5 188
1510.5 263
1511.5 366
1512.5 365
1513.5 293
1514.5 274
1515.5 164
1516.5 185
1517.5 301
1518.5 245
1519.5 283
1520.5 281
1521.5 286
1522.5 217
1523.5 177
1524.5 251
1525.5 256
1526.5 232
1527.5 257
1528.5 202
1529.5 225
1530.5 272
1531.5 244
1532.5 320
1533.5 238
1534.5 125
1535.5 289
1536.5 271
1537.5 285
1538.5 363
1539.5 294
1540.5 357
1541.5 250
1542.5 292
1543.5 194
1544.5 237
1545.5 256
1546.5 174
1547.5 136
1548.5 269
1549.5 325
1550.5 218
1551.5 163
1552.5 310
1553.5 256
1554.5 165
1555.5 234
1556.5 148
1557.5 234
1558.5 216
1559.5 203
1560.5 285
1561.5 299
1562.5 270
1563.5 265
1564.5 284
1565.5 264
1566.5 236
1567.5 203
1568.5 173
1569.5 259
1570.5 187
1571.5 285
1572.5 278
1573.5 275
1574.5 300
1575.5 396
1576.5 452
1577.5 600
1578.5 379
1579.5 295
1580.5 276
1581.5 267
1582.5 273
1583.5 263
1584.5 252
1585.5 228
1586.5 229
1587.5 192
1588.5 302
1589.5 133
1590.5 257
1591.5 177
1592.5 147
1593.5 283
1594.5 207
1595.5 231
1596.5 303
1597.5 218
1598.5 227
1599.5 259
1600.5 313
1601.5 240
1602.5 337
1603.5 264
1604.5 299
1605.5 254
1606.5 249
1607.5 226
1608.5 254
1609.5 150
1610.5 242
1611.5 214
1612.5 276
1613.5 242
1614.5 297
1615.5 230
1616.5 331
1617.5 311
1618.5 242
1619.5 240
1620.5 269
1621.5 289
1622.5 243
1623.5 265
1624.5 214
1625.5 273
1626.5 127
1627.5 257
1628.5 308
1629.5 328
1630.5 339
1631.5 443
1632.5 842
1633.5 1046
1634.5 691
1635.5 430
1636.5 244
1637.5 217
1638.5 341
1639.5 328
1640.5 432
1641.5 348
1642.5 91
1643.5 297
1644.5 270
1645.5 314
1646.5 394
1647.5 444
1648.5 466
1649.5 208
1650.5 274
1651.5 209
1652.5 229
1653.5 252
1654.5 272
1655.5 270
1656.5 311
1657.5 427
1658.5 623
1659.5 500
1660.5 357
1661.5 242
1662.5 241
1663.5 278
1664.5 219
1665.5 201
1666.5 258
1667.5 249
1668.5 218
1669.5 203
1670.5 236
1671.5 251
1672.5 144
1673.5 129
1674.5 257
1675.5 141
1676.5 212
1677.5 199
1678.5 159
1679.5 186
1680.5 163
1681.5 207
1682.5 255
1683.5 210
1684.5 217
1685.5 254
1686.5 253
1687.5 236
1688.5 230
1689.5 196
1690.5 204
1691.5 245
1692.5 239
1693.5 168
1694.5 234
1695.5 166
1696.5 131
1697.5 212
1698.5 159
1699.5 190
1700.5 236
1701.5 264
1702.5 228
1703.5 253
1704.5 304
1705.5 192
1706.5 163
1707.5 264
1708.5 261
1709.5 261
1710.5 156
1711.5 295
1712.5 219
1713.5 255
1714.5 334
1715.5 265
1716.5 311
1717.5 259
1718.5 335
1719.5 202
1720.5 188
1721.5 204
1722.5 266
1723.5 288
1724.5 276
1725.5 411
1726.5 377
1727.5 278
1728.5 267
1729.5 302
1730.5 268
1731.5 177
1732.5 187
1733.5 211
1734.5 263
1735.5 209
1736.5 303
1737.5 171
1738.5 219
1739.5 228
1740.5 241
1741.5 248
1742.5 159
1743.5 144
1744.5 162
1745.5 113
1746.5 161
1747.5 264
1748.5 193
1749.5 224
1750.5 172
1751.5 180
1752.5 214
1753.5 156
1754.5 89
1755.5 235
1756.5 223
1757.5 189
1758.5 149
1759.5 192
1760.5 233
1761.5 142
1762.5 115
1763.5 213
1764.5 161
1765.5 235
1766.5 160
1767.5 139
1768.5 219
1769.5 131
1770.5 242
1771.5 196
1772.5 219
1773.5 193
1774.5 196
1775.5 198
1776.5 399
1777.5 617
1778.5 542
1779.5 475
1780.5 278
1781.5 244
1782.5 190
1783.5 299
1784.5 249
1785.5 257
1786.5 179
1787.5 205
1788.5 237
1789.5 249
1790.5 199
1791.5 182
1792.5 191
1793.5 138
1794.5 156
1795.5 159
1796.5 267
1797.5 266
1798.5 201
1799.5 200
1800.5 217
1801.5 184
1802.5 193
1803.5 163
1804.5 198
1805.5 196
1806.5 150
1807.5 302
1808.5 258
1809.5 342
1810.5 126
1811.5 182
1812.5 184
1813.5 180
1814.5 151
1815.5 171
1816.5 213
1817.5 355
1818.5 534
1819.5 446
1820.5 277
1821.5 250
1822.5 251
1823.5 281
1824.5 320
1825.5 159
1826.5 292
1827.5 226
1828.5 205
