# EGG_ProjY_E476.5(4.5)_B468.5(1.5)_B488.0(1.0)
# X axis : Energy (keV) [Y axis]
# Y axis : Counts/1 keV
# N Bins : 12000
# X Min : 0
# X Max : 12000
# X value at the center of the bins
0.5 0
1.5 0
2.5 0
3.5 0
4.5 0
5.5 122
6.5 111.8
7.5 93.8
8.5 87.4
9.5 136.6
10.5 126.6
11.5 155.4
12.5 95
13.5 -27.4
14.5 -82.4
15.5 -337.2
16.5 -400.2
17.5 -650
18.5 -805.2
19.5 -1189
20.5 -1656.2
21.5 -2191.8
22.5 -2546
23.5 -1613.8
24.5 -457.4
25.5 884.6
26.5 2895.6
27.5 4956
28.5 6595.4
29.5 8882
30.5 10463
31.5 12982.4
32.5 14340
33.5 14700.4
34.5 13851.4
35.5 13026.4
36.5 10722.2
37.5 8010.6
38.5 4260.6
39.5 57.201
40.5 -4519.6
41.5 -7220
42.5 -8379
43.5 -5688.4
44.5 -2761.8
45.5 220.401
46.5 2679.6
47.5 4192.6
48.5 4983.6
49.5 4777.8
50.5 5278.6
51.5 4976
52.5 6002.2
53.5 7790.8
54.5 7080.6
55.5 6243.4
56.5 5412.4
57.5 6084.4
58.5 6516.6
59.5 6416
60.5 5349
61.5 5275
62.5 5072.6
63.5 4682.6
64.5 4918.4
65.5 5336.4
66.5 5486
67.5 6057.8
68.5 4508
69.5 4588.6
70.5 4458.8
71.5 3554.6
72.5 3897.8
73.5 4761.4
74.5 6288
75.5 6983.4
76.5 7631.2
77.5 9166.8
78.5 6513
79.5 5026
80.5 4501.4
81.5 3945.2
82.5 3070
83.5 3930.2
84.5 4125.6
85.5 3318.4
86.5 4779.6
87.5 5718
88.5 5402.2
89.5 5533.6
90.5 4340.4
91.5 4016
92.5 3700
93.5 3528.2
94.5 3118.2
95.5 3246
96.5 3018.8
97.5 3398.8
98.5 3272.4
99.5 3976.6
100.5 3590
101.5 3767.2
102.5 4272.2
103.5 3961.8
104.5 4123.8
105.5 3892.2
106.5 3611
107.5 3161
108.5 3966.8
109.5 4610.2
110.5 4094.4
111.5 3959
112.5 4558.8
113.5 3368.4
114.5 2449.4
115.5 3706.6
116.5 3919.6
117.5 4892.2
118.5 5490.8
119.5 5017.6
120.5 4855.4
121.5 4087
122.5 5320.4
123.5 3754.4
124.5 3771.4
125.5 2343.6
126.5 3101
127.5 3325
128.5 2885.6
129.5 3471.4
130.5 4014.2
131.5 4147.8
132.5 4759.2
133.5 4274.8
134.5 4159.8
135.5 4038.2
136.5 4818.8
137.5 4277.2
138.5 3641.8
139.5 4836.6
140.5 3742.6
141.5 3216
142.5 3441.4
143.5 3753.4
144.5 3915.4
145.5 3854.8
146.5 4139.2
147.5 4380.6
148.5 4875.6
149.5 4209.4
150.5 4868.4
151.5 4629
152.5 5594
153.5 5552.2
154.5 5657.8
155.5 6179.8
156.5 5826.6
157.5 5088.6
158.5 3560.4
159.5 2504.4
160.5 2802.4
161.5 2956
162.5 4101.2
163.5 3948.6
164.5 3929.4
165.5 3709.2
166.5 3080.6
167.5 2273.2
168.5 1466.4
169.5 2548.8
170.5 4136.2
171.5 5438
172.5 6461.2
173.5 7324.6
174.5 7608
175.5 6687.8
176.5 6445.2
177.5 6841
178.5 6298.6
179.5 6012
180.5 4992.2
181.5 5348.8
182.5 4516
183.5 3831.4
184.5 3260.4
185.5 3586.8
186.5 3447.8
187.5 2359
188.5 3620.8
189.5 4651.2
190.5 6205.6
191.5 6324.8
192.5 4432
193.5 3559.2
194.5 2974.6
195.5 1862.4
196.5 2129.8
197.5 2932
198.5 4678.2
199.5 4115.2
200.5 4259
201.5 4884
202.5 4403.4
203.5 5241.8
204.5 4887.4
205.5 3877.6
206.5 4203.4
207.5 4611.6
208.5 5032.8
209.5 4536.8
210.5 4779.4
211.5 4768
212.5 4410.4
213.5 4230.4
214.5 4753.2
215.5 3972
216.5 4456.6
217.5 4138.6
218.5 4259.6
219.5 3623.6
220.5 3491.2
221.5 4119
222.5 3900.4
223.5 4673
224.5 4654
225.5 4635.2
226.5 4555
227.5 4019.2
228.5 4370.6
229.5 4904.4
230.5 4864.6
231.5 4458.6
232.5 4702.6
233.5 4489.2
234.5 4280.6
235.5 3890.8
236.5 4055.2
237.5 3581.6
238.5 3696
239.5 3237.8
240.5 3228.4
241.5 4280.2
242.5 3663
243.5 3643
244.5 4203.6
245.5 3849.8
246.5 4293.4
247.5 4061.4
248.5 4301.4
249.5 3919.4
250.5 4344.8
251.5 4082.2
252.5 4178
253.5 3804.8
254.5 3699.6
255.5 3725
256.5 3346.8
257.5 3384.2
258.5 3528.4
259.5 3122.2
260.5 3795.4
261.5 3561
262.5 3601.6
263.5 4059.2
264.5 4018
265.5 3693.4
266.5 3872.2
267.5 3492
268.5 4038.4
269.5 2978.8
270.5 1651.8
271.5 -1119.4
272.5 -2590.2
273.5 -2934
274.5 -591.799
275.5 2104.8
276.5 3233.4
277.5 3323.8
278.5 4079.6
279.5 5022.8
280.5 8472.2
281.5 9397.8
282.5 9703.8
283.5 11007
284.5 10532.6
285.5 10262
286.5 10194.6
287.5 9370
288.5 7602
289.5 4590.2
290.5 -98.999
291.5 -4391.2
292.5 -6134.8
293.5 -4246.2
294.5 -687.199
295.5 1530.6
296.5 2733.2
297.5 2839.8
298.5 2815.6
299.5 2739.6
300.5 2697.4
301.5 2879.4
302.5 3125.6
303.5 3203
304.5 3796.8
305.5 3795
306.5 4926.4
307.5 3712.4
308.5 4473.2
309.5 3988.8
310.5 3907.2
311.5 4149.2
312.5 4329.6
313.5 3847.8
314.5 4038
315.5 3846.4
316.5 2461.6
317.5 1486.6
318.5 565.001
319.5 1129.4
320.5 1849.4
321.5 2317.4
322.5 2779.2
323.5 3526.8
324.5 3247
325.5 4369.8
326.5 3620.6
327.5 4058.4
328.5 4357.4
329.5 3858
330.5 4851
331.5 4498.4
332.5 4497
333.5 3993
334.5 3825.6
335.5 3106.4
336.5 2740.6
337.5 2162
338.5 1511.6
339.5 1719
340.5 2729.8
341.5 3394.4
342.5 2829
343.5 2749.6
344.5 3065.2
345.5 2809.8
346.5 2340.2
347.5 2672.2
348.5 2596.4
349.5 3035.2
350.5 3071.2
351.5 2988.4
352.5 2766
353.5 2841.2
354.5 3005
355.5 2739.2
356.5 2235.4
357.5 2997.8
358.5 2607.8
359.5 2540.4
360.5 2666.8
361.5 2452.4
362.5 2244
363.5 2892.2
364.5 2287
365.5 2838.8
366.5 3061
367.5 3489.6
368.5 3372.6
369.5 3074.4
370.5 2567.4
371.5 3101.2
372.5 2478.4
373.5 2864.8
374.5 2744.6
375.5 2368
376.5 2189.4
377.5 1618.6
378.5 1310
379.5 1162
380.5 317.801
381.5 542.801
382.5 1632.8
383.5 2125.6
384.5 2119
385.5 2505.8
386.5 2947.8
387.5 3210.2
388.5 3420
389.5 4012.8
390.5 3671.8
391.5 4467.4
392.5 4334.4
393.5 4820.6
394.5 5091
395.5 4398.4
396.5 3561.6
397.5 2744
398.5 1976
399.5 1302.8
400.5 615.601
401.5 1897.4
402.5 3122
403.5 5968.8
404.5 6509.4
405.5 3931.8
406.5 2376.8
407.5 1747
408.5 1344
409.5 772.201
410.5 664.201
411.5 1795
412.5 2223
413.5 1912.8
414.5 2189.2
415.5 2137
416.5 2284.8
417.5 2382.4
418.5 2884.2
419.5 2472
420.5 2664.4
421.5 2127.8
422.5 2577
423.5 2671.8
424.5 2279.8
425.5 2315.8
426.5 2487
427.5 1911.8
428.5 1954
429.5 2056
430.5 1746
431.5 1949
432.5 2232
433.5 2205.4
434.5 2229.6
435.5 2460
436.5 2249
437.5 2207.4
438.5 2124
439.5 2159
440.5 2333.8
441.5 2157
442.5 1912.2
443.5 2677
444.5 1965.2
445.5 2831.4
446.5 2380.8
447.5 2583.6
448.5 2141.4
449.5 2075
450.5 2262.2
451.5 1825
452.5 2458.4
453.5 2209.6
454.5 2320.8
455.5 1736.4
456.5 2193.2
457.5 2013.6
458.5 2190.8
459.5 2824
460.5 2480.2
461.5 2231.8
462.5 2375.8
463.5 2350.2
464.5 2284.6
465.5 3028.6
466.5 2364
467.5 2123.4
468.5 2535.8
469.5 3098
470.5 4115
471.5 5222.8
472.5 7264
473.5 7901.2
474.5 7755.8
475.5 8194.4
476.5 8051.2
477.5 8617.8
478.5 7919
479.5 8056
480.5 8222.4
481.5 8204.6
482.5 7594.6
483.5 6622.2
484.5 4932.4
485.5 3527
486.5 2742.8
487.5 2776.8
488.5 2656.6
489.5 2037.6
490.5 2319.4
491.5 2544.2
492.5 1937.4
493.5 1689.2
494.5 1442.8
495.5 1138.8
496.5 1189
497.5 906.601
498.5 1010.2
499.5 1642.8
500.5 1916.8
501.5 1817.8
502.5 2159.4
503.5 2532.4
504.5 2116
505.5 2851.4
506.5 2961
507.5 4797
508.5 7547.2
509.5 12831.6
510.5 18987.2
511.5 16812.8
512.5 9458.6
513.5 2546.4
514.5 323.001
515.5 907.601
516.5 1413.6
517.5 2656.2
518.5 2316.2
519.5 2640.8
520.5 3527.4
521.5 4499
522.5 4496.8
523.5 4606.2
524.5 4484.6
525.5 4660.6
526.5 4616.2
527.5 3919.8
528.5 3524.6
529.5 2417.4
530.5 717
531.5 -858.799
532.5 -2110.8
533.5 -1779.4
534.5 -1298.8
535.5 -299.8
536.5 197
537.5 980.8
538.5 1226.4
539.5 1617.6
540.5 1617.4
541.5 1650.6
542.5 2204
543.5 2046.2
544.5 2363.8
545.5 2592
546.5 2321.2
547.5 2058.6
548.5 2531.8
549.5 2717.8
550.5 2260.6
551.5 1964
552.5 1500.6
553.5 1253.2
554.5 1033.8
555.5 407.4
556.5 572.4
557.5 944.2
558.5 1290.4
559.5 1510
560.5 1408.2
561.5 1332
562.5 1191.6
563.5 1492.2
564.5 1300.4
565.5 1513
566.5 1692
567.5 1242.4
568.5 1537.4
569.5 923.8
570.5 1722.6
571.5 1731.2
572.5 1946.8
573.5 1829
574.5 1648.6
575.5 1887.6
576.5 2006.2
577.5 1790.6
578.5 1549
579.5 1608.4
580.5 1663
581.5 1600.8
582.5 2434
583.5 2183.8
584.5 -524.599
585.5 -2408.6
586.5 -2024.8
587.5 -592
588.5 730.6
589.5 939.2
590.5 1330.4
591.5 2257.2
592.5 3419.2
593.5 4543.6
594.5 5119.8
595.5 5694.4
596.5 6116.2
597.5 5648.8
598.5 5326.6
599.5 5172
600.5 4991
601.5 2910.2
602.5 385.6
603.5 -1804.8
604.5 -3514
605.5 -3975
606.5 -2297.2
607.5 -832.8
608.5 474.6
609.5 728.6
610.5 1302.2
611.5 1357.6
612.5 1315.4
613.5 1487.8
614.5 1625
615.5 1471.4
616.5 1757
617.5 1773.6
618.5 2128.6
619.5 1788.8
620.5 1522.2
621.5 2012.4
622.5 1600.2
623.5 1940.6
624.5 1068.6
625.5 1385.6
626.5 1275.4
627.5 2538.4
628.5 3929.8
629.5 3199.8
630.5 1353.6
631.5 1066
632.5 1162.6
633.5 866
634.5 -1022
635.5 -5370.2
636.5 -11605.4
637.5 -13822.4
638.5 -10964.4
639.5 -5526.6
640.5 -1335.6
641.5 1388.4
642.5 3170
643.5 6448.6
644.5 11421
645.5 16374
646.5 19054.4
647.5 20118.8
648.5 20483.8
649.5 20644.6
650.5 21506.8
651.5 19829
652.5 15281
653.5 7935.2
654.5 -1556.2
655.5 -12209.2
656.5 -20092.6
657.5 -20993.8
658.5 -15182.6
659.5 -7039.6
660.5 -1521.4
661.5 545.6
662.5 1093
663.5 789.8
664.5 93.2005
665.5 -3217.6
666.5 -11997
667.5 -23965.6
668.5 -27470.2
669.5 -20782
670.5 -9137.6
671.5 -2217.8
672.5 1297.4
673.5 4630.6
674.5 10355.8
675.5 19060.4
676.5 26170.6
677.5 31730.6
678.5 33411.2
679.5 34237.8
680.5 33852
681.5 32897
682.5 31100.2
683.5 23318.2
684.5 10894
685.5 -7764.8
686.5 -27170.2
687.5 -40060.6
688.5 -38009.6
689.5 -24863.6
690.5 -11119.2
691.5 -2979.8
692.5 316.4
693.5 636.8
694.5 498.8
695.5 773.8
696.5 700.2
697.5 970.4
698.5 1486.4
699.5 1079.6
700.5 1273.6
701.5 1459.8
702.5 1190.8
703.5 2031.6
704.5 1348.6
705.5 1503.8
706.5 1980.2
707.5 1975.4
708.5 2262.4
709.5 1596.4
710.5 1560
711.5 1190.6
712.5 1505.4
713.5 876
714.5 1042.6
715.5 751.8
716.5 657.6
717.5 594
718.5 1108.6
719.5 1146.6
720.5 1042.6
721.5 1546.2
722.5 1347.8
723.5 1657.8
724.5 1325
725.5 1491.2
726.5 1759.6
727.5 1955.2
728.5 1725.2
729.5 1419.4
730.5 1319.6
731.5 1468.6
732.5 1177.4
733.5 1269.2
734.5 1303.8
735.5 960.6
736.5 1279.2
737.5 1538.8
738.5 1820
739.5 1447
740.5 1654.8
741.5 1480
742.5 1316.4
743.5 1284.6
744.5 942.8
745.5 1362.4
746.5 1204.2
747.5 1438.2
748.5 1410.8
749.5 1503.4
750.5 1387
751.5 1391.6
752.5 1206.2
753.5 1397.6
754.5 1526.2
755.5 1292.6
756.5 1147.8
757.5 1214.2
758.5 1588.8
759.5 2630.6
760.5 5508.4
761.5 6039.2
762.5 3226.8
763.5 1633.4
764.5 1434
765.5 1578.8
766.5 1383.4
767.5 1322.8
768.5 1274.6
769.5 1246.2
770.5 1230.8
771.5 1106
772.5 789.6
773.5 944.8
774.5 1027.6
775.5 1405.2
776.5 1054.6
777.5 1378.6
778.5 1089
779.5 1730.2
780.5 1758.2
781.5 1763
782.5 2054.8
783.5 1070.6
784.5 1824.2
785.5 1844.2
786.5 1875
787.5 2007.2
788.5 2186.6
789.5 1600.6
790.5 1182.4
791.5 1398.6
792.5 1142.6
793.5 985.2
794.5 982.2
795.5 1338.6
796.5 1216.2
797.5 1451.8
798.5 1125.4
799.5 1426.4
800.5 1176.4
801.5 1282.4
802.5 1309.6
803.5 1204.2
804.5 1539.6
805.5 1451.4
806.5 2110
807.5 2043.4
808.5 1776.6
809.5 1493.6
810.5 1109
811.5 1207.6
812.5 1475.6
813.5 1399.4
814.5 1710.4
815.5 1645.8
816.5 1931.8
817.5 1523.8
818.5 1458.4
819.5 1553.2
820.5 1421.8
821.5 1065.8
822.5 1160.8
823.5 1024
824.5 864.2
825.5 759
826.5 1345
827.5 1329.8
828.5 1504.8
829.5 1278.6
830.5 1507
831.5 1652.4
832.5 1313.4
833.5 1501.8
834.5 1862
835.5 1516.4
836.5 1661.8
837.5 1210.2
838.5 1310
839.5 1194.2
840.5 1233.8
841.5 1231
842.5 1412.6
843.5 1181.4
844.5 1059.6
845.5 1571.8
846.5 1279
847.5 1323.8
848.5 1034.4
849.5 1415
850.5 1453.8
851.5 1676.2
852.5 1285.2
853.5 1147.2
854.5 1335
855.5 1398
856.5 1241
857.5 1071.8
858.5 1496.2
859.5 1326
860.5 1535.6
861.5 1487
862.5 1384.2
863.5 1701.4
864.5 1218.6
865.5 1210.4
866.5 1966.6
867.5 1967.8
868.5 3299
869.5 3653.6
870.5 2776.2
871.5 2137.2
872.5 1525.4
873.5 1658
874.5 1890.4
875.5 2322.2
876.5 3138.8
877.5 2720.6
878.5 2374
879.5 2166.6
880.5 1355.4
881.5 1058.2
882.5 1395.4
883.5 1589.2
884.5 1404
885.5 1511.6
886.5 1666
887.5 1482.8
888.5 1145.6
889.5 1497.6
890.5 1322
891.5 1666.2
892.5 1673.2
893.5 1535
894.5 1614.8
895.5 1651.2
896.5 2182.4
897.5 1950.2
898.5 1708
899.5 1377.8
900.5 1870.6
901.5 1323.8
902.5 1662.6
903.5 1479.8
904.5 1617.8
905.5 1589.4
906.5 1839
907.5 1816.4
908.5 1281.8
909.5 1973
910.5 1521.4
911.5 1806.2
912.5 1507
913.5 1880.6
914.5 1571.8
915.5 1218
916.5 1352.6
917.5 1881
918.5 1214
919.5 998.6
920.5 1348.6
921.5 1846.6
922.5 1412
923.5 1449.6
924.5 1447.6
925.5 1460.2
926.5 1419.6
927.5 1249.6
928.5 1550.2
929.5 1714.2
930.5 1414.2
931.5 1475.8
932.5 1421.2
933.5 1201.4
934.5 1861.8
935.5 1740.6
936.5 1689.2
937.5 1262.2
938.5 1365.4
939.5 1480.6
940.5 1261
941.5 1275.8
942.5 1520
943.5 1805.4
944.5 1651.8
945.5 1584.8
946.5 1173.2
947.5 1871.2
948.5 1636.8
949.5 1939
950.5 1639.2
951.5 1629.2
952.5 1777.8
953.5 2066.2
954.5 1988.4
955.5 1837.8
956.5 1722.8
957.5 947.6
958.5 1010.2
959.5 632.6
960.5 826.8
961.5 1404.4
962.5 1506.8
963.5 1037.4
964.5 1209.8
965.5 1789.8
966.5 1668
967.5 1508.4
968.5 1261.8
969.5 862.8
970.5 1463.8
971.5 1178
972.5 992.4
973.5 944.6
974.5 885.6
975.5 1257
976.5 1188.4
977.5 991.2
978.5 1208.6
979.5 1240.4
980.5 1447.8
981.5 1517.6
982.5 1849.2
983.5 2147.8
984.5 1533.2
985.5 1299.4
986.5 1682.8
987.5 1336.6
988.5 1206.2
989.5 843
990.5 992.6
991.5 810.2
992.5 890
993.5 1090
994.5 961.4
995.5 887
996.5 1176.8
997.5 1070.2
998.5 1194.8
999.5 1665.2
1000.5 3121.2
1001.5 4967.4
1002.5 3588.8
1003.5 1878
1004.5 1161.4
1005.5 993.2
1006.5 1160.2
1007.5 701
1008.5 578.8
1009.5 35.2002
1010.5 -289.2
1011.5 56.0002
1012.5 160.4
1013.5 396.8
1014.5 819.8
1015.5 929.2
1016.5 1266.4
1017.5 1545.4
1018.5 2131.2
1019.5 2371.2
1020.5 2376.6
1021.5 2446.8
1022.5 2609.4
1023.5 2743
1024.5 3154.6
1025.5 3035.4
1026.5 1778.2
1027.5 894.2
1028.5 275.4
1029.5 -682.2
1030.5 -1155.6
1031.5 -522.2
1032.5 170.6
1033.5 553.2
1034.5 1007.8
1035.5 711.2
1036.5 886.8
1037.5 1096
1038.5 1029
1039.5 1036.2
1040.5 815
1041.5 723
1042.5 864
1043.5 1014.4
1044.5 1010.2
1045.5 1030.2
1046.5 1021.2
1047.5 896.4
1048.5 907.8
1049.5 980.4
1050.5 930
1051.5 773
1052.5 632.2
1053.5 580.2
1054.5 679
1055.5 979.2
1056.5 870.8
1057.5 1325.8
1058.5 798.8
1059.5 1110
1060.5 934.2
1061.5 950
1062.5 1196.2
1063.5 1123.4
1064.5 1163.4
1065.5 1295.6
1066.5 1158.4
1067.5 1068.4
1068.5 847
1069.5 810.8
1070.5 684.4
1071.5 758.6
1072.5 2206.2
1073.5 4274
1074.5 6241.2
1075.5 3515.2
1076.5 1620.6
1077.5 1047.4
1078.5 598.2
1079.5 937
1080.5 805.6
1081.5 522.8
1082.5 965
1083.5 647.4
1084.5 613.6
1085.5 824.6
1086.5 609.4
1087.5 550
1088.5 594.2
1089.5 814.8
1090.5 701.8
1091.5 745.2
1092.5 785.8
1093.5 787
1094.5 665.2
1095.5 873.4
1096.5 1174.4
1097.5 881.8
1098.5 941.6
1099.5 753.8
1100.5 446.4
1101.5 750.4
1102.5 608.6
1103.5 720
1104.5 610
1105.5 925
1106.5 812.2
1107.5 836.2
1108.5 1048.4
1109.5 875.4
1110.5 736.4
1111.5 939.2
1112.5 566.8
1113.5 788.2
1114.5 814
1115.5 761.6
1116.5 846.8
1117.5 732.2
1118.5 557.8
1119.5 547.8
1120.5 713.6
1121.5 719.4
1122.5 1344.2
1123.5 3003.2
1124.5 10266.8
1125.5 24631.6
1126.5 27153.2
1127.5 12580
1128.5 3309.6
1129.5 1463.8
1130.5 944.8
1131.5 608.6
1132.5 440.8
1133.5 625.4
1134.5 401.6
1135.5 703.4
1136.5 654.2
1137.5 453
1138.5 581.8
1139.5 736.2
1140.5 768.6
1141.5 566.2
1142.5 295.4
1143.5 -572.8
1144.5 -903.6
1145.5 -944.4
1146.5 -469.6
1147.5 95.4002
1148.5 518.8
1149.5 774.8
1150.5 1126
1151.5 1411.6
1152.5 1996.4
1153.5 3898.8
1154.5 8951.4
1155.5 25238.2
1156.5 55589
1157.5 56578.2
1158.5 24789.4
1159.5 6872.8
1160.5 2269.2
1161.5 1051
1162.5 -256.4
1163.5 -844.8
1164.5 -1177.6
1165.5 -820.2
1166.5 -537.8
1167.5 353.6
1168.5 481.4
1169.5 480
1170.5 482.2
1171.5 535.4
1172.5 469.8
1173.5 981.6
1174.5 852
1175.5 945.2
1176.5 527.8
1177.5 273.2
1178.5 -24.1999
1179.5 291.8
1180.5 316.4
1181.5 1172.8
1182.5 2203.2
1183.5 2545.4
1184.5 1633
1185.5 885
1186.5 942.4
1187.5 747.8
1188.5 393.6
1189.5 438.4
1190.5 323.6
1191.5 516.8
1192.5 431.6
1193.5 721.6
1194.5 736.8
1195.5 523.2
1196.5 536.8
1197.5 534.6
1198.5 683.4
1199.5 751.4
1200.5 438.2
1201.5 509
1202.5 324
1203.5 598.8
1204.5 489.6
1205.5 322.4
1206.5 549.6
1207.5 379.6
1208.5 552.8
1209.5 553.4
1210.5 370.4
1211.5 528.6
1212.5 647
1213.5 526
1214.5 455.6
1215.5 327.8
1216.5 503
1217.5 664.8
1218.5 531.8
1219.5 475.2
1220.5 515.4
1221.5 493
1222.5 520.6
1223.5 337.6
1224.5 426.2
1225.5 616.2
1226.5 537.2
1227.5 280
1228.5 567.4
1229.5 526.6
1230.5 545
1231.5 606.6
1232.5 608.8
1233.5 939.6
1234.5 702.2
1235.5 618
1236.5 527.2
1237.5 427.8
1238.5 90.2001
1239.5 587.8
1240.5 662.4
1241.5 390.2
1242.5 455.4
1243.5 426.2
1244.5 938.2
1245.5 1031
1246.5 788.2
1247.5 951.6
1248.5 1056.6
1249.5 865.6
1250.5 1065
1251.5 1161.8
1252.5 798.2
1253.5 694
1254.5 317.8
1255.5 31.2001
1256.5 -192.6
1257.5 -23.9999
1258.5 120.6
1259.5 -130.2
1260.5 -193.2
1261.5 277.8
1262.5 580.2
1263.5 737
1264.5 899
1265.5 626.4
1266.5 929.8
1267.5 635.2
1268.5 485.4
1269.5 658.4
1270.5 498.4
1271.5 396.2
1272.5 473.4
1273.5 503.6
1274.5 436
1275.5 206.6
1276.5 429.8
1277.5 538.6
1278.5 612.8
1279.5 290
1280.5 453
1281.5 464
1282.5 534.4
1283.5 540.8
1284.5 467.6
1285.5 525.8
1286.5 225.6
1287.5 481
1288.5 119.8
1289.5 -8.79988
1290.5 121.2
1291.5 192.8
1292.5 549.2
1293.5 755.2
1294.5 799
1295.5 637.4
1296.5 773.6
1297.5 894
1298.5 1071.2
1299.5 1224.4
1300.5 932.6
1301.5 1019
1302.5 1089.4
1303.5 828.2
1304.5 836
1305.5 1042.8
1306.5 874.2
1307.5 261.8
1308.5 533.4
1309.5 179.4
1310.5 156.2
1311.5 48.8001
1312.5 290.2
1313.5 563.4
1314.5 687.2
1315.5 540.6
1316.5 738.6
1317.5 492.8
1318.5 239.8
1319.5 352.6
1320.5 340
1321.5 340.4
1322.5 362
1323.5 579.8
1324.5 571
1325.5 519.8
1326.5 558.4
1327.5 569
1328.5 636.4
1329.5 612
1330.5 717.4
1331.5 732.6
1332.5 703
1333.5 515.6
1334.5 458.8
1335.5 389.8
1336.5 164.2
1337.5 495.8
1338.5 230
1339.5 347.6
1340.5 126.2
1341.5 194
1342.5 370.2
1343.5 613.6
1344.5 781.8
1345.5 608.6
1346.5 434.8
1347.5 338
1348.5 414.8
1349.5 453.2
1350.5 421.4
1351.5 433.6
1352.5 462.4
1353.5 597.2
1354.5 359.4
1355.5 343
1356.5 271.2
1357.5 498.2
1358.5 547.8
1359.5 271
1360.5 471.8
1361.5 427.2
1362.5 582.2
1363.5 563.2
1364.5 609.2
1365.5 636.2
1366.5 648.4
1367.5 665.4
1368.5 599.6
1369.5 496.4
1370.5 762.2
1371.5 456.2
1372.5 402.8
1373.5 449.4
1374.5 272
1375.5 343
1376.5 415.6
1377.5 409.2
1378.5 481.4
1379.5 785.4
1380.5 400.2
1381.5 370.4
1382.5 56.6001
1383.5 -14.3999
1384.5 -5.99988
1385.5 -22.1999
1386.5 83.6002
1387.5 424.6
1388.5 239
1389.5 596.6
1390.5 694.6
1391.5 1046.4
1392.5 1065.4
1393.5 1108.2
1394.5 1117
1395.5 915.8
1396.5 643.4
1397.5 250.6
1398.5 245
1399.5 70.0001
1400.5 -86.7999
1401.5 56.2001
1402.5 -90.7999
1403.5 -424.4
1404.5 3.60012
1405.5 549.8
1406.5 1189.6
1407.5 1460.6
1408.5 1753.8
1409.5 1807.8
1410.5 1514
1411.5 1686.6
1412.5 1604
1413.5 1533.4
1414.5 867.4
1415.5 310.2
1416.5 -452
1417.5 -922.8
1418.5 -1067
1419.5 -802.4
1420.5 -147.8
1421.5 473.6
1422.5 448.8
1423.5 561
1424.5 390.4
1425.5 460.8
1426.5 519.8
1427.5 1061.8
1428.5 1202.2
1429.5 1229.8
1430.5 530.6
1431.5 368
1432.5 205.8
1433.5 201.8
1434.5 237
1435.5 210.4
1436.5 330.4
1437.5 310.4
1438.5 604.4
1439.5 478.8
1440.5 595.6
1441.5 632.6
1442.5 462
1443.5 526.8
1444.5 319.8
1445.5 481.4
1446.5 461.8
1447.5 459.4
1448.5 427
1449.5 346.8
1450.5 332
1451.5 148.2
1452.5 88.8001
1453.5 57.2001
1454.5 -130
1455.5 77.0001
1456.5 319.4
1457.5 324.6
1458.5 818.4
1459.5 878.2
1460.5 831.2
1461.5 791.4
1462.5 751
1463.5 914.2
1464.5 1116.6
1465.5 864.4
1466.5 995.8
1467.5 1019
1468.5 703
1469.5 842
1470.5 569.2
1471.5 163.6
1472.5 -37.3999
1473.5 -60.1999
1474.5 114.4
1475.5 236
1476.5 548.8
1477.5 657.4
1478.5 638.8
1479.5 458.6
1480.5 484.6
1481.5 603.8
1482.5 324.6
1483.5 428
1484.5 463.4
1485.5 466.4
1486.5 484
1487.5 359.8
1488.5 442.6
1489.5 206.2
1490.5 354.8
1491.5 34.4001
1492.5 418.2
1493.5 193
1494.5 304.4
1495.5 442.8
1496.5 592
1497.5 1018.8
1498.5 1553.8
1499.5 2121
1500.5 1626
1501.5 1102.8
1502.5 668
1503.5 500.6
1504.5 279
1505.5 519.8
1506.5 382.6
1507.5 327.4
1508.5 482.2
1509.5 520.8
1510.5 462.2
1511.5 659
1512.5 331
1513.5 372
1514.5 513.8
1515.5 621.8
1516.5 733.6
1517.5 560.6
1518.5 746
1519.5 874
1520.5 742.6
1521.5 479.8
1522.5 511.4
1523.5 282.2
1524.5 452.8
1525.5 516.6
1526.5 482.8
1527.5 384.6
1528.5 539.6
1529.5 349.2
1530.5 438.2
1531.5 461.6
1532.5 337.6
1533.5 398.2
1534.5 545
1535.5 336
1536.5 668
1537.5 459.2
1538.5 376.6
1539.5 508.6
1540.5 434.6
1541.5 363
1542.5 606.8
1543.5 517.8
1544.5 398.4
1545.5 447.2
1546.5 579
1547.5 452
1548.5 560.8
1549.5 416.2
1550.5 407
1551.5 504.4
1552.5 311.2
1553.5 544
1554.5 559.8
1555.5 356.4
1556.5 274.6
1557.5 553.4
1558.5 421
1559.5 335.6
1560.5 417
1561.5 487.8
1562.5 306.4
1563.5 258.4
