# EGG_ProjY_E1001.5(4.5)_B992.5(1.5)_B1012.5(1.5)
# X axis : Energy (keV) [Y axis]
# Y axis : Counts/1 keV
# N Bins : 12000
# X Min : 0
# X Max : 12000
# X value at the center of the bins
0.5 0
1.5 0
2.5 0
3.5 0
4.5 0
5.5 172.5
6.5 156.5
7.5 245.5
8.5 201
9.5 190
10.5 147
11.5 191
12.5 258
13.5 380.5
14.5 568
15.5 701
16.5 890.5
17.5 1330.5
18.5 1653.5
19.5 2265
20.5 2695.5
21.5 3522.5
22.5 4096
23.5 4745.5
24.5 5478.5
25.5 6241.5
26.5 7475
27.5 7938
28.5 8546.5
29.5 9675.5
30.5 9752
31.5 10903
32.5 11553.5
33.5 12484
34.5 12225.5
35.5 12478.5
36.5 13527.5
37.5 13960.5
38.5 13880.5
39.5 14594.5
40.5 14843.5
41.5 16793.5
42.5 19412.5
43.5 19530
44.5 16139
45.5 15132.5
46.5 15552.5
47.5 15889
48.5 16865.5
49.5 16886
50.5 15978
51.5 15989
52.5 16082.5
53.5 16404.5
54.5 16549
55.5 16342.5
56.5 17137
57.5 19529
58.5 23750
59.5 24984.5
60.5 20594
61.5 16775.5
62.5 16428
63.5 16356
64.5 16728.5
65.5 17303
66.5 19541.5
67.5 21255
68.5 19444
69.5 18571
70.5 17802
71.5 17947.5
72.5 18768
73.5 21543
74.5 30442
75.5 33976.5
76.5 36658.5
77.5 41476
78.5 27292.5
79.5 21014
80.5 18362.5
81.5 16771
82.5 16843.5
83.5 16795.5
84.5 17694
85.5 19209
86.5 24081
87.5 27584
88.5 23129.5
89.5 21392.5
90.5 21136
91.5 18582.5
92.5 16955.5
93.5 17550
94.5 17636.5
95.5 17521.5
96.5 17890
97.5 18223.5
98.5 18383.5
99.5 18430
100.5 18560.5
101.5 18754.5
102.5 18574.5
103.5 18644
104.5 18661.5
105.5 18772.5
106.5 18940.5
107.5 19230
108.5 19119.5
109.5 18940
110.5 17994
111.5 15628
112.5 13265
113.5 12630.5
114.5 14869.5
115.5 17608.5
116.5 19953
117.5 21584.5
118.5 23378.5
119.5 25761
120.5 29332
121.5 31335.5
122.5 32604.5
123.5 33175
124.5 33542
125.5 33666
126.5 33932.5
127.5 32355
128.5 29713
129.5 25080.5
130.5 20437
131.5 14278
132.5 9575.5
133.5 6813.5
134.5 9972.5
135.5 16146
136.5 19935
137.5 21947.5
138.5 22470.5
139.5 22533.5
140.5 21121
141.5 14303
142.5 4648.5
143.5 -7561
144.5 -9645
145.5 -2590
146.5 10308
147.5 20011
148.5 26399
149.5 31198.5
150.5 40689
151.5 50133.5
152.5 57485.5
153.5 60258.5
154.5 62014.5
155.5 61347.5
156.5 61502
157.5 59000
158.5 54843.5
159.5 44520.5
160.5 31948.5
161.5 16627
162.5 127.5
163.5 -14335
164.5 -17781
165.5 -7803
166.5 7392.5
167.5 18387
168.5 22622.5
169.5 23745
170.5 24428
171.5 23749.5
172.5 23984.5
173.5 24015
174.5 23140.5
175.5 24579.5
176.5 25282.5
177.5 26064
178.5 26093
179.5 26433
180.5 29029.5
181.5 39025.5
182.5 42146
183.5 31949
184.5 28198
185.5 27896
186.5 27973
187.5 27603.5
188.5 27486
189.5 26732.5
190.5 27335.5
191.5 27074
192.5 26842
193.5 26818
194.5 27065
195.5 27548
196.5 27010.5
197.5 27087
198.5 27718.5
199.5 27252
200.5 26961
201.5 27685.5
202.5 27105
203.5 27305
204.5 27506
205.5 27440
206.5 27667.5
207.5 28209
208.5 27794.5
209.5 29643.5
210.5 29897
211.5 29825
212.5 30431
213.5 29682
214.5 30071
215.5 30068.5
216.5 29967.5
217.5 29939
218.5 30182.5
219.5 29339.5
220.5 29146.5
221.5 29708.5
222.5 29112.5
223.5 28948
224.5 28770
225.5 28356
226.5 28078
227.5 28300.5
228.5 28233.5
229.5 27893.5
230.5 28033
231.5 27427.5
232.5 27268
233.5 27358
234.5 27012.5
235.5 27354.5
236.5 26734.5
237.5 27226.5
238.5 26983
239.5 26529.5
240.5 27131.5
241.5 26085.5
242.5 26453
243.5 26074
244.5 26339.5
245.5 26057.5
246.5 25347.5
247.5 24525
248.5 25366
249.5 25516
250.5 25048.5
251.5 25297
252.5 25189.5
253.5 25068
254.5 25018.5
255.5 25028.5
256.5 25150.5
257.5 25439.5
258.5 25516
259.5 24984.5
260.5 25047
261.5 25409.5
262.5 24768.5
263.5 24630.5
264.5 24062.5
265.5 23816.5
266.5 23614.5
267.5 23151
268.5 22526
269.5 22838.5
270.5 22738
271.5 22814
272.5 22820.5
273.5 22958.5
274.5 22777.5
275.5 22786
276.5 22318
277.5 22841.5
278.5 22548.5
279.5 21846.5
280.5 22289.5
281.5 22358
282.5 21927.5
283.5 22640
284.5 21790
285.5 21950.5
286.5 22160.5
287.5 22068.5
288.5 22513.5
289.5 22089
290.5 22017.5
291.5 21809.5
292.5 22192
293.5 21939
294.5 21602
295.5 21635
296.5 21211.5
297.5 20798.5
298.5 20952.5
299.5 21263
300.5 20568.5
301.5 20366.5
302.5 20779
303.5 20772.5
304.5 20908.5
305.5 21352
306.5 20819.5
307.5 21074.5
308.5 21295.5
309.5 21291
310.5 21245.5
311.5 21005.5
312.5 20369.5
313.5 20598
314.5 20019.5
315.5 20176.5
316.5 20202
317.5 20222.5
318.5 20236.5
319.5 20140.5
320.5 19745
321.5 20400
322.5 20220
323.5 20288.5
324.5 20170.5
325.5 20464
326.5 20443
327.5 19973.5
328.5 20444.5
329.5 19884
330.5 20559.5
331.5 20090
332.5 19898
333.5 19866
334.5 19707
335.5 19978
336.5 19848
337.5 19392.5
338.5 19252.5
339.5 19547
340.5 19602.5
341.5 20007
342.5 19419
343.5 18895
344.5 19448.5
345.5 19075
346.5 19387.5
347.5 18943.5
348.5 19291.5
349.5 18695.5
350.5 18868
351.5 19072.5
352.5 19104.5
353.5 18600
354.5 18979.5
355.5 19054.5
356.5 18592
357.5 18338.5
358.5 18576.5
359.5 18434.5
360.5 18409.5
361.5 18688
362.5 18041.5
363.5 18016.5
364.5 18092
365.5 18087
366.5 18311.5
367.5 18453
368.5 18359.5
369.5 18143.5
370.5 18436
371.5 18374.5
372.5 18524
373.5 18048
374.5 18027.5
375.5 18161
376.5 17936
377.5 18555.5
378.5 18122.5
379.5 18173.5
380.5 18096.5
381.5 18114.5
382.5 18426.5
383.5 18460.5
384.5 18345.5
385.5 18028.5
386.5 18241.5
387.5 18378
388.5 17923.5
389.5 18219
390.5 18399
391.5 17999
392.5 18001
393.5 18457.5
394.5 17934
395.5 17483
396.5 17741
397.5 17771.5
398.5 17546.5
399.5 17938
400.5 17904
401.5 18342
402.5 18387.5
403.5 18862.5
404.5 18889
405.5 18197.5
406.5 17742.5
407.5 17716
408.5 17815.5
409.5 17895
410.5 18553
411.5 17908
412.5 18217.5
413.5 18173.5
414.5 17743.5
415.5 17465.5
416.5 17724.5
417.5 17440.5
418.5 18206.5
419.5 18187
420.5 18307.5
421.5 18806
422.5 18822
423.5 19369
424.5 18958
425.5 19138.5
426.5 19199.5
427.5 19111.5
428.5 19425.5
429.5 19185.5
430.5 19294.5
431.5 19468
432.5 18910
433.5 19224.5
434.5 18738.5
435.5 18353
436.5 18704.5
437.5 18947
438.5 19022.5
439.5 19304
440.5 19332
441.5 19414
442.5 19231.5
443.5 19655.5
444.5 19948.5
445.5 19582
446.5 18884
447.5 18158.5
448.5 18487.5
449.5 18145
450.5 17931.5
451.5 18063.5
452.5 17804
453.5 17963
454.5 17957
455.5 17412
456.5 17738.5
457.5 17825.5
458.5 17369.5
459.5 17333
460.5 16643.5
461.5 16623
462.5 16779
463.5 16700
464.5 16300
465.5 16401
466.5 16144.5
467.5 15915.5
468.5 15685.5
469.5 15991.5
470.5 16113.5
471.5 16647
472.5 16547.5
473.5 16532.5
474.5 16480.5
475.5 17315.5
476.5 17459.5
477.5 17241.5
478.5 16674
479.5 16399
480.5 16006.5
481.5 16146.5
482.5 16303
483.5 15549.5
484.5 14987.5
485.5 14011.5
486.5 14019
487.5 14073
488.5 13957.5
489.5 14592.5
490.5 15019.5
491.5 15330.5
492.5 15950
493.5 16451.5
494.5 15919.5
495.5 15980
496.5 15681.5
497.5 15901
498.5 15813.5
499.5 15613
500.5 16112.5
501.5 14856
502.5 15093.5
503.5 14648.5
504.5 14123
505.5 14142.5
506.5 16239.5
507.5 20578.5
508.5 31810
509.5 54625.5
510.5 72208.5
511.5 71677
512.5 49299.5
513.5 29089
514.5 18625
515.5 15462
516.5 14334.5
517.5 13553
518.5 13402.5
519.5 13429.5
520.5 13094.5
521.5 13008
522.5 13080
523.5 13110
524.5 12975.5
525.5 12997.5
526.5 12930
527.5 12924
528.5 12872.5
529.5 12868.5
530.5 13290.5
531.5 14306
532.5 15016.5
533.5 14178
534.5 13071
535.5 12960.5
536.5 12748.5
537.5 13036
538.5 13178
539.5 12553.5
540.5 13070
541.5 12842.5
542.5 12585
543.5 12732
544.5 12480
545.5 12682.5
546.5 12587.5
547.5 12305.5
548.5 12253
549.5 12324.5
550.5 12473.5
551.5 12336
552.5 12223.5
553.5 12480.5
554.5 12580.5
555.5 12479.5
556.5 12769.5
557.5 12594.5
558.5 12591.5
559.5 12747
560.5 13045.5
561.5 12585
562.5 12531.5
563.5 12452
564.5 12340.5
565.5 12714.5
566.5 12584.5
567.5 12373.5
568.5 12060.5
569.5 12536
570.5 12599.5
571.5 12580
572.5 12449
573.5 12316
574.5 12505.5
575.5 12496
576.5 12604
577.5 12458.5
578.5 12503
579.5 12306
580.5 12247.5
581.5 12269
582.5 13147
583.5 12995.5
584.5 12816
585.5 12541.5
586.5 12665.5
587.5 12581.5
588.5 12682.5
589.5 12508.5
590.5 12674
591.5 12628
592.5 12507.5
593.5 12788.5
594.5 13153.5
595.5 13507.5
596.5 13331
597.5 13216.5
598.5 12673
599.5 12803
600.5 12405
601.5 12596.5
602.5 12548.5
603.5 12656.5
604.5 12669
605.5 12533.5
606.5 12931
607.5 12839.5
608.5 12853
609.5 12796
610.5 12530.5
611.5 12229.5
612.5 12501
613.5 12271
614.5 12209
615.5 12374.5
616.5 11915.5
617.5 11750.5
618.5 11559
619.5 11445
620.5 10905
621.5 11409.5
622.5 11678.5
623.5 12095
624.5 12678
625.5 15615
626.5 41363.5
627.5 159255
628.5 301218
629.5 203422
630.5 64330.5
631.5 21560
632.5 13661
633.5 12811
634.5 14835.5
635.5 37169
636.5 131422
637.5 220446
638.5 132902
639.5 41160
640.5 15500.5
641.5 11246.5
642.5 10795.5
643.5 10356
644.5 10344
645.5 10373.5
646.5 10469.5
647.5 10599
648.5 15387
649.5 36835.5
650.5 62291.5
651.5 44159.5
652.5 19136
653.5 11261.5
654.5 10185.5
655.5 9925.5
656.5 10136
657.5 9929.5
658.5 9574
659.5 9746.5
660.5 9858.5
661.5 9825
662.5 9948
663.5 9920
664.5 10032
665.5 10004.5
666.5 10043
667.5 9720
668.5 9665
669.5 10850.5
670.5 11170.5
671.5 10592.5
672.5 9824
673.5 9381.5
674.5 9643
675.5 9499
676.5 9644.5
677.5 9518.5
678.5 10196.5
679.5 10228
680.5 9686.5
681.5 9473
682.5 9310
683.5 9513
684.5 9774.5
685.5 9667
686.5 9442
687.5 9415.5
688.5 9501
689.5 9535
690.5 9763
691.5 9492
692.5 9419
693.5 9684
694.5 9747.5
695.5 9917
696.5 9515
697.5 9887
698.5 9269.5
699.5 9608.5
700.5 9501.5
701.5 9145.5
702.5 9260
703.5 9449
704.5 9386.5
705.5 9407
706.5 9275.5
707.5 9590
708.5 9361
709.5 9528.5
710.5 9312
711.5 9242.5
712.5 9400.5
713.5 9322
714.5 9273.5
715.5 9425.5
716.5 9360.5
717.5 9316.5
718.5 9329.5
719.5 10094
720.5 9654
721.5 9760.5
722.5 9890
723.5 9439.5
724.5 9544
725.5 9632
726.5 9650.5
727.5 9565
728.5 9394.5
729.5 9288
730.5 9519.5
731.5 9228
732.5 9494.5
733.5 9429.5
734.5 9207
735.5 9330.5
736.5 9487.5
737.5 9637
738.5 9463.5
739.5 9678.5
740.5 9392
741.5 9480
742.5 9690
743.5 9311.5
744.5 9339
745.5 9236
746.5 9618
747.5 9723
748.5 9382
749.5 9600.5
750.5 9748
751.5 9649
752.5 9382
753.5 9403.5
754.5 9500.5
755.5 9328
756.5 9502.5
757.5 9554
758.5 9839.5
759.5 9359
760.5 10612.5
761.5 9886.5
762.5 10064
763.5 9588.5
764.5 9594
765.5 9469
766.5 9539.5
767.5 9673
768.5 9689
769.5 9890
770.5 10037
771.5 9933.5
772.5 10025.5
773.5 9832
774.5 10015.5
775.5 10108.5
776.5 10054
777.5 10062.5
778.5 10377
779.5 10423
780.5 9958
781.5 9793
782.5 9943
783.5 9607
784.5 9483.5
785.5 9421.5
786.5 9493
787.5 9685
788.5 9746
789.5 9802.5
790.5 9810.5
791.5 9884
792.5 10162.5
793.5 10148.5
794.5 10021.5
795.5 10070
796.5 9890
797.5 10098
798.5 10091.5
799.5 9840
800.5 10079.5
801.5 10174.5
802.5 10403.5
803.5 11614
804.5 21181.5
805.5 67033.5
806.5 147084
807.5 134929
808.5 55811.5
809.5 19318
810.5 11985
811.5 10285
812.5 9769
813.5 9781
814.5 9731
815.5 10088
816.5 10047
817.5 10023
818.5 9752
819.5 9844
820.5 9891
821.5 10093.5
822.5 10185.5
823.5 10242
824.5 10138
825.5 9961
826.5 10043
827.5 9743.5
828.5 9984.5
829.5 10147.5
830.5 10841.5
831.5 10295.5
832.5 10359
833.5 10436.5
834.5 9868.5
835.5 10243.5
836.5 10315
837.5 10595.5
838.5 10767.5
839.5 10426
840.5 10343
841.5 10488
842.5 10512
843.5 10730.5
844.5 10488
845.5 10881
846.5 10518.5
847.5 10757.5
848.5 10502
849.5 10401
850.5 10678.5
851.5 10840.5
852.5 11268
853.5 10846
854.5 10862
855.5 10719
856.5 11048
857.5 10999
858.5 11315.5
859.5 10777.5
860.5 10887.5
861.5 10907.5
862.5 11332
863.5 11171
864.5 11575
865.5 11135
866.5 11622
867.5 11646.5
868.5 11841.5
869.5 11505.5
870.5 11406
871.5 11359
872.5 11229.5
873.5 11246
874.5 11414.5
875.5 11497.5
876.5 11465
877.5 11413.5
878.5 11889
879.5 12260
880.5 12148
881.5 12221
882.5 12085
883.5 12684.5
884.5 12334
885.5 12729
886.5 13035.5
887.5 13013
888.5 12998
889.5 12819
890.5 12607.5
891.5 12723
892.5 12843.5
893.5 12995
894.5 12881
895.5 13105
896.5 13413.5
897.5 13630.5
898.5 13611
899.5 13920.5
900.5 13559.5
901.5 13908
902.5 14291.5
903.5 14284.5
904.5 14074
905.5 14375
906.5 14219
907.5 14493
908.5 14428.5
909.5 14867.5
910.5 14471.5
911.5 14883
912.5 14770
913.5 14598.5
914.5 14668.5
915.5 14444
916.5 14004.5
917.5 13852.5
918.5 13913
919.5 13317
920.5 13263
921.5 12999.5
922.5 12838
923.5 13062.5
924.5 13183.5
925.5 12896.5
926.5 12799.5
927.5 12826.5
928.5 12805.5
929.5 12949.5
930.5 13137
931.5 13149.5
932.5 12947.5
933.5 13094.5
934.5 13458.5
935.5 13353.5
936.5 13565
937.5 13533.5
938.5 13343.5
939.5 13437
940.5 13155
941.5 13425.5
942.5 13068.5
943.5 12542.5
944.5 12005.5
945.5 12529.5
946.5 11992
947.5 12386.5
948.5 11463.5
949.5 11299
950.5 11212.5
951.5 10916
952.5 10839.5
953.5 10936
954.5 10969
955.5 10705.5
956.5 10369
957.5 10435.5
958.5 9872.5
959.5 10020
960.5 9927.5
961.5 9889
962.5 9974.5
963.5 9918
964.5 9774
965.5 10010
966.5 10015.5
967.5 9637
968.5 9481
969.5 9673
970.5 9799.5
971.5 9460
972.5 9419
973.5 9501
974.5 9437.5
975.5 9286
976.5 9610
977.5 9488.5
978.5 9259
979.5 9120
980.5 8906.5
981.5 8836
982.5 8818
983.5 8989.5
984.5 8650
985.5 8900
986.5 8878
987.5 9091
988.5 8970.5
989.5 8170.5
990.5 8617.5
991.5 8396.5
992.5 8452.5
993.5 8304
994.5 8465
995.5 8564.5
996.5 8708
997.5 8306
998.5 8215.5
999.5 8255.5
1000.5 8271
1001.5 9263.5
1002.5 8674
1003.5 8572
1004.5 7787
1005.5 7802
1006.5 7991.5
1007.5 7839.5
1008.5 7527.5
1009.5 7565.5
1010.5 7205.5
1011.5 7455.5
1012.5 7298.5
1013.5 7509
1014.5 8659.5
1015.5 11625
1016.5 16684.5
1017.5 15791
1018.5 9929
1019.5 7557.5
1020.5 6974.5
1021.5 6865
1022.5 6935
1023.5 6959
1024.5 7193
1025.5 7290
1026.5 6931
1027.5 6807.5
1028.5 6564
1029.5 6432.5
1030.5 6344.5
1031.5 6398.5
1032.5 6405
1033.5 6287
1034.5 6180.5
1035.5 6436.5
1036.5 6046
1037.5 6068
1038.5 6007
1039.5 6351
1040.5 6253
1041.5 5977.5
1042.5 5904
1043.5 5831
1044.5 5838.5
1045.5 5796.5
1046.5 5673.5
1047.5 5780
1048.5 5961
1049.5 5991.5
1050.5 6047.5
1051.5 5719.5
1052.5 5741.5
1053.5 5775
1054.5 6099.5
1055.5 6124.5
1056.5 5893
1057.5 5845.5
1058.5 5591
1059.5 5508.5
1060.5 5582
1061.5 5587
1062.5 6079
1063.5 7417
1064.5 9098.5
1065.5 8241.5
1066.5 6253.5
1067.5 5489.5
1068.5 5356
1069.5 5164
1070.5 5114.5
1071.5 5394
1072.5 5448.5
1073.5 6852
1074.5 6857.5
1075.5 5537
1076.5 5410.5
1077.5 5197.5
1078.5 4768.5
1079.5 4980
1080.5 5433
1081.5 5215.5
1082.5 5536.5
1083.5 5372
1084.5 5311.5
1085.5 5285.5
1086.5 5056
1087.5 5074.5
1088.5 5051.5
1089.5 5128
1090.5 5405.5
1091.5 5564.5
1092.5 5348
1093.5 5125.5
1094.5 4913.5
1095.5 4916.5
1096.5 4741
1097.5 4942.5
1098.5 4683
1099.5 5144.5
1100.5 5191.5
1101.5 5509.5
1102.5 5055
1103.5 4931
1104.5 4709.5
1105.5 4970.5
1106.5 4989
1107.5 5094
1108.5 4892.5
1109.5 4884
1110.5 4947.5
1111.5 4917
1112.5 4983
1113.5 5114
1114.5 5300.5
1115.5 5437
1116.5 5164
1117.5 5266
1118.5 5048
1119.5 5079.5
1120.5 5440
1121.5 6771
1122.5 14568
1123.5 53211.5
1124.5 193602
1125.5 465292
1126.5 527558
1127.5 243872
1128.5 55814
1129.5 13248.5
1130.5 6279
1131.5 4650.5
1132.5 3820.5
1133.5 3734
1134.5 3834
1135.5 3790
1136.5 3369
1137.5 3573.5
1138.5 3549
1139.5 3678
1140.5 3586.5
1141.5 3687.5
1142.5 3703.5
1143.5 3753
1144.5 3910.5
1145.5 4005.5
1146.5 4147
1147.5 4537
1148.5 4357.5
1149.5 4340
1150.5 4174
1151.5 4387
1152.5 5985.5
1153.5 15769
1154.5 62500
1155.5 220070
1156.5 488304
1157.5 498488
1158.5 209461
1159.5 45350
1160.5 10468.5
1161.5 4324.5
1162.5 2996
1163.5 2766.5
1164.5 2773.5
1165.5 2661
1166.5 2612
1167.5 2334.5
1168.5 2505.5
1169.5 2339
1170.5 2440.5
1171.5 2895.5
1172.5 4418.5
1173.5 7686.5
1174.5 7507.5
1175.5 4461
1176.5 2798
1177.5 2690
1178.5 2677
1179.5 3129
1180.5 6474.5
1181.5 16006.5
1182.5 30722
1183.5 29067.5
1184.5 12988.5
1185.5 4427
1186.5 2938.5
1187.5 2651
1188.5 2600
1189.5 2677
1190.5 2707
1191.5 2377.5
1192.5 2330.5
1193.5 2330
1194.5 2751
1195.5 3694.5
1196.5 4980
1197.5 4591.5
1198.5 3350.5
1199.5 2463
1200.5 2213.5
1201.5 2127.5
1202.5 2250.5
1203.5 2349.5
1204.5 2268
1205.5 2098.5
1206.5 2119
1207.5 1862.5
1208.5 1759
1209.5 1549.5
1210.5 1318
1211.5 1260.5
1212.5 1499.5
1213.5 2068
1214.5 2413
1215.5 2851
1216.5 2916
1217.5 3065
1218.5 3073.5
1219.5 3140
1220.5 3232.5
1221.5 3453.5
1222.5 3615
1223.5 3790
1224.5 3986
1225.5 4431
1226.5 3971.5
1227.5 2583
1228.5 1572.5
1229.5 1391.5
1230.5 937
1231.5 1218.5
1232.5 1563.5
1233.5 1916.5
1234.5 2106
1235.5 2311.5
1236.5 2197
1237.5 2338.5
1238.5 2156.5
1239.5 2098
1240.5 2094
1241.5 2150
1242.5 2171
1243.5 2216.5
1244.5 2200.5
1245.5 2174
1246.5 2345
1247.5 2245
1248.5 2165
1249.5 2075
1250.5 2097.5
1251.5 2069
1252.5 2008
1253.5 2029
1254.5 2217
1255.5 1971.5
1256.5 2064
1257.5 2077.5
1258.5 2272.5
1259.5 2094.5
1260.5 2049
1261.5 2294
1262.5 2260
1263.5 2363
1264.5 2288
1265.5 2257
1266.5 2329.5
1267.5 2305
1268.5 2229.5
1269.5 2054.5
1270.5 2088
1271.5 1960.5
1272.5 2001.5
1273.5 2077
1274.5 2062.5
1275.5 2225.5
1276.5 2249
1277.5 2303
1278.5 2327
1279.5 2334
1280.5 2355.5
1281.5 2283.5
1282.5 2141.5
1283.5 2307.5
1284.5 2265.5
1285.5 2274
1286.5 2123.5
1287.5 1960.5
1288.5 2054
1289.5 1970.5
1290.5 2364.5
1291.5 2619.5
1292.5 2430
1293.5 2544
1294.5 2320
1295.5 2106
1296.5 2015
1297.5 2011
1298.5 2021
1299.5 1993
1300.5 2256
1301.5 2210.5
1302.5 2205
1303.5 2114
1304.5 2141.5
1305.5 2227.5
1306.5 2644.5
1307.5 2756.5
1308.5 2605
1309.5 2249
1310.5 2268.5
1311.5 2129.5
1312.5 2195
1313.5 2030
1314.5 2642.5
1315.5 3336.5
1316.5 3348
1317.5 2650
1318.5 2346.5
1319.5 2142.5
1320.5 2060
1321.5 2076.5
1322.5 2265
1323.5 2362
1324.5 2293.5
1325.5 2456
1326.5 2106
1327.5 2191
1328.5 2377
1329.5 2518.5
1330.5 2991
1331.5 2989
1332.5 2878
1333.5 2389
1334.5 2200
1335.5 2061.5
1336.5 2137
1337.5 2050.5
1338.5 2045.5
1339.5 2145.5
1340.5 2223.5
1341.5 2328.5
1342.5 2762.5
1343.5 2591.5
1344.5 2417.5
1345.5 2285.5
1346.5 2400.5
1347.5 2473.5
1348.5 2389.5
1349.5 2217
1350.5 2059
1351.5 2157
1352.5 2169
1353.5 2199.5
1354.5 2081
1355.5 2308
1356.5 2013
1357.5 2097.5
1358.5 2171.5
1359.5 2072
1360.5 2225.5
1361.5 2332
1362.5 2292
1363.5 2584
1364.5 3175
1365.5 4192.5
1366.5 4373
1367.5 3268
1368.5 2307
1369.5 2153.5
1370.5 2308.5
1371.5 2332.5
1372.5 2421.5
1373.5 2649.5
1374.5 2977
1375.5 3045
1376.5 2386.5
1377.5 2315.5
1378.5 2243.5
1379.5 2078.5
1380.5 2000
1381.5 2142
1382.5 2038
1383.5 2262
1384.5 2254
1385.5 2356.5
1386.5 2371
1387.5 2337.5
1388.5 2496
1389.5 2359.5
1390.5 2211.5
1391.5 2166
1392.5 2272.5
1393.5 2146.5
1394.5 2252.5
1395.5 2214
1396.5 2217
1397.5 2176
1398.5 2174
1399.5 2406.5
1400.5 2214
1401.5 2145
1402.5 2199.5
1403.5 2209.5
1404.5 2322.5
1405.5 2220
1406.5 2025.5
1407.5 2260
1408.5 2357.5
1409.5 2322.5
1410.5 2251
1411.5 2378
1412.5 2617.5
1413.5 3246.5
1414.5 3460.5
1415.5 3027.5
1416.5 2578.5
1417.5 2984
1418.5 4022.5
1419.5 5353
1420.5 5041
1421.5 3353
1422.5 2427.5
1423.5 2234.5
1424.5 2119.5
1425.5 2366.5
1426.5 3047
1427.5 3942.5
1428.5 4029
1429.5 3750
1430.5 2776.5
1431.5 2500
1432.5 2158
1433.5 2099.5
1434.5 2012.5
1435.5 2185
1436.5 2452.5
1437.5 2711.5
1438.5 2504.5
1439.5 2253
1440.5 2223
1441.5 2106
1442.5 1989.5
1443.5 1897
1444.5 2042
1445.5 1975.5
1446.5 2049.5
1447.5 2057
1448.5 2033
1449.5 2193
1450.5 2232
1451.5 2276
1452.5 1913.5
1453.5 2001.5
1454.5 1914
1455.5 1978.5
1456.5 1971.5
1457.5 1972.5
1458.5 2144.5
1459.5 2021
1460.5 2098.5
1461.5 2051.5
1462.5 1866.5
1463.5 2187.5
1464.5 2311.5
1465.5 2439
1466.5 2225.5
1467.5 2322
1468.5 2616
1469.5 2523
1470.5 2192.5
1471.5 2493.5
1472.5 2995
1473.5 3715.5
1474.5 3603.5
1475.5 2625
1476.5 2279.5
1477.5 2023
1478.5 2236.5
1479.5 2505.5
1480.5 3682
1481.5 5001
1482.5 4521.5
1483.5 2836
1484.5 2091.5
1485.5 2005
1486.5 1918.5
1487.5 2259.5
1488.5 2466.5
1489.5 2078.5
1490.5 2022.5
1491.5 2045
1492.5 2048.5
1493.5 2020
1494.5 1951.5
1495.5 1967
1496.5 1955
1497.5 2230.5
1498.5 2947.5
1499.5 2767
1500.5 2488
1501.5 2069.5
1502.5 1836
1503.5 2027.5
1504.5 1937.5
1505.5 1992.5
1506.5 1982
1507.5 1965.5
1508.5 2083
1509.5 2631
1510.5 3872.5
1511.5 4361.5
1512.5 3590.5
1513.5 2446.5
1514.5 2251
1515.5 2301.5
1516.5 2108.5
1517.5 1971
1518.5 1926.5
1519.5 2129.5
1520.5 2135
1521.5 1947.5
1522.5 1862
1523.5 2194.5
1524.5 2275.5
1525.5 1983
1526.5 2088
1527.5 1901
1528.5 2116.5
1529.5 2010.5
1530.5 1808.5
1531.5 1884
1532.5 1802
1533.5 1834
1534.5 1963
1535.5 1947
1536.5 1943
1537.5 1880
1538.5 2175
1539.5 1952.5
1540.5 2068.5
1541.5 2085.5
1542.5 2427
1543.5 2411
1544.5 2340.5
1545.5 2446
1546.5 2559.5
