# EGG_ProjY_E1074.5(4.5)_B1067.5(1.5)_B1081.0(1.0)
# X axis : Energy (keV) [Y axis]
# Y axis : Counts/1 keV
# N Bins : 12000
# X Min : 0
# X Max : 12000
# X value at the center of the bins
0.5 0
1.5 0
2.5 0
3.5 0
4.5 0
5.5 625.8
6.5 503.2
7.5 439.4
8.5 675.8
9.5 600.4
10.5 363.4
11.5 337.8
12.5 506.4
13.5 693.6
14.5 866.8
15.5 1045.8
16.5 1411
17.5 1719.4
18.5 2083.4
19.5 2857.2
20.5 3609.8
21.5 4258.8
22.5 5357.2
23.5 6399.4
24.5 7313
25.5 8391.4
26.5 9105.6
27.5 10369.2
28.5 10924.4
29.5 11886.4
30.5 12784.6
31.5 13902.2
32.5 14797.4
33.5 14995.6
34.5 15558.6
35.5 15785.4
36.5 16471
37.5 17056.2
38.5 16692
39.5 17095.2
40.5 17289.6
41.5 17458.6
42.5 16840.6
43.5 16950.4
44.5 17685.4
45.5 17876.2
46.5 19410.2
47.5 19483.2
48.5 19948
49.5 20366.2
50.5 20137.4
51.5 20250.2
52.5 20842.2
53.5 21611.6
54.5 20805.8
55.5 21304.8
56.5 20877.8
57.5 23328.4
58.5 28163.8
59.5 30110.2
60.5 25611.8
61.5 20579.6
62.5 20415
63.5 20703.8
64.5 21227.8
65.5 21661.8
66.5 23782.8
67.5 25730.6
68.5 24215.8
69.5 22421.4
70.5 21307.6
71.5 21707.4
72.5 22090.6
73.5 25356.4
74.5 34259.8
75.5 39086.4
76.5 42469.2
77.5 50912
78.5 34006
79.5 25163
80.5 24113
81.5 24034.4
82.5 24705.8
83.5 24560.2
84.5 25032.4
85.5 26019.8
86.5 30217.4
87.5 32161.2
88.5 21680.6
89.5 17332.8
90.5 19416.6
91.5 20232.6
92.5 20437
93.5 21367.8
94.5 21512.8
95.5 21663.2
96.5 21583.8
97.5 22201.6
98.5 22077
99.5 22090.8
100.5 22415.6
101.5 22699.2
102.5 22330.2
103.5 22688.2
104.5 22925.8
105.5 23155.4
106.5 22873.4
107.5 23263.2
108.5 23538.2
109.5 23440.6
110.5 23731.6
111.5 24287.6
112.5 23763.4
113.5 23960.2
114.5 24350
115.5 24594.4
116.5 24456.6
117.5 24920.2
118.5 25200.8
119.5 25132.4
120.5 25696.6
121.5 25995.4
122.5 26153
123.5 26407.8
124.5 26581
125.5 27192.8
126.5 26947.4
127.5 27035.8
128.5 27347.8
129.5 27461.6
130.5 27479.2
131.5 27898.6
132.5 27595.6
133.5 28281.4
134.5 28008
135.5 28453.8
136.5 28128.6
137.5 27886.2
138.5 28273.4
139.5 28435.4
140.5 28868
141.5 28892.8
142.5 28138.6
143.5 28370.8
144.5 28994.4
145.5 28595.8
146.5 28084.4
147.5 28894.2
148.5 28704.4
149.5 28978.8
150.5 28801.4
151.5 28873.2
152.5 29505.8
153.5 28635.6
154.5 28951.8
155.5 28900.4
156.5 28931.6
157.5 28635.4
158.5 29045.4
159.5 28748.4
160.5 29363.2
161.5 29243.8
162.5 29273.2
163.5 29364.8
164.5 29338.4
165.5 29712.6
166.5 29332
167.5 29041
168.5 29367
169.5 29650.6
170.5 29782
171.5 30165
172.5 29723.4
173.5 30715
174.5 31873
175.5 30267.4
176.5 30052.2
177.5 29745
178.5 29344.6
179.5 29621.6
180.5 29746
181.5 30276.4
182.5 30377.4
183.5 30271.4
184.5 30409.4
185.5 29877.4
186.5 30082.2
187.5 30272.4
188.5 30541.8
189.5 30299.2
190.5 30245.8
191.5 30292.6
192.5 29707.2
193.5 29293.2
194.5 29105.4
195.5 29366.4
196.5 29870
197.5 30061
198.5 28319
199.5 26525.4
200.5 27899.4
201.5 30155.6
202.5 30891
203.5 30531.4
204.5 31134.2
205.5 30932
206.5 31256.2
207.5 32052.8
208.5 33718.8
209.5 34324.2
210.5 35172.8
211.5 36283.2
212.5 36233.2
213.5 35566.4
214.5 36160.4
215.5 35928
216.5 36325.6
217.5 35796.2
218.5 36161.8
219.5 36112.8
220.5 36278.8
221.5 35194.6
222.5 35489.2
223.5 35220.8
224.5 35499.8
225.5 34984.2
226.5 34005
227.5 33575
228.5 34208.8
229.5 33786.2
230.5 33607.2
231.5 34322.8
232.5 33915.2
233.5 34058.8
234.5 34106.4
235.5 33687.4
236.5 33857
237.5 32903
238.5 32422.2
239.5 32542
240.5 33268.2
241.5 31821.2
242.5 32002.6
243.5 32153
244.5 32064.2
245.5 31666.4
246.5 31534
247.5 31551.4
248.5 30988.2
249.5 31502.4
250.5 31259.8
251.5 31041
252.5 31023.8
253.5 30873.2
254.5 30559.4
255.5 30578.8
256.5 29840.4
257.5 30225.6
258.5 29812
259.5 29611.8
260.5 29249.8
261.5 29089.4
262.5 29013.4
263.5 28616
264.5 28460.4
265.5 28527.4
266.5 28358.2
267.5 28072
268.5 27782.6
269.5 27875.4
270.5 28010.6
271.5 27812.2
272.5 28001.8
273.5 27910
274.5 27930.6
275.5 27431.4
276.5 27165.4
277.5 27364.4
278.5 27304
279.5 27344
280.5 26778.6
281.5 26844.4
282.5 26406
283.5 26339.6
284.5 26209
285.5 26851.6
286.5 26129
287.5 26248.4
288.5 26031.8
289.5 25653.6
290.5 25865.6
291.5 25342.2
292.5 25602
293.5 25754.4
294.5 25663.8
295.5 25648.2
296.5 25384.6
297.5 24865
298.5 25624.4
299.5 25009.6
300.5 25364
301.5 25123.2
302.5 25640
303.5 25266.8
304.5 24954.8
305.5 24733.2
306.5 24342.4
307.5 24877.8
308.5 24375.8
309.5 24122.6
310.5 24358.6
311.5 25180.8
312.5 24866
313.5 24256.2
314.5 24347.8
315.5 24490.4
316.5 24127
317.5 24166.8
318.5 24087.8
319.5 23539.4
320.5 23528.6
321.5 24092.6
322.5 23036.8
323.5 23804.8
324.5 23723.8
325.5 24044.2
326.5 23936.4
327.5 24086.8
328.5 23332.6
329.5 23507.2
330.5 23520
331.5 23664.8
332.5 23325
333.5 23521.2
334.5 23037.8
335.5 23119.4
336.5 23677.2
337.5 22806.2
338.5 23032.8
339.5 22352.8
340.5 22833.2
341.5 22224.8
342.5 22316.4
343.5 22155.8
344.5 22020
345.5 21372.4
346.5 20910.8
347.5 21125.8
348.5 21494.6
349.5 22105
350.5 21913.2
351.5 21865.4
352.5 22830
353.5 24511.8
354.5 26959.6
355.5 25342.8
356.5 22677
357.5 22005.4
358.5 20959.2
359.5 19870
360.5 19472.2
361.5 19756
362.5 20025.8
363.5 20302.4
364.5 20735.2
365.5 20334.4
366.5 20414.6
367.5 20778.8
368.5 20794.4
369.5 20223.6
370.5 20109.4
371.5 20135.4
372.5 20145.6
373.5 20097.6
374.5 19985
375.5 19602.6
376.5 19781.2
377.5 19821.4
378.5 19929
379.5 20139.6
380.5 19657.4
381.5 19666.8
382.5 19502.2
383.5 20030
384.5 19812.8
385.5 19753.2
386.5 19459.8
387.5 19884.2
388.5 19846
389.5 19597.2
390.5 19316
391.5 19397.2
392.5 19007.2
393.5 19161
394.5 19116.6
395.5 18899.8
396.5 18734.8
397.5 18965.2
398.5 19011.2
399.5 18934.2
400.5 18256
401.5 18653.6
402.5 18718.6
403.5 19111.8
404.5 19356
405.5 19399.2
406.5 18715.8
407.5 18678.6
408.5 18707.6
409.5 18751.4
410.5 18621.6
411.5 18345.8
412.5 18510.6
413.5 18427.4
414.5 17890.6
415.5 17842.4
416.5 17570.2
417.5 17061.2
418.5 16622.8
419.5 17512.2
420.5 18585.6
421.5 19793.8
422.5 19846.8
423.5 19736.8
424.5 19871.2
425.5 19841.8
426.5 19900.8
427.5 19229.4
428.5 18272.6
429.5 17405.2
430.5 16262.4
431.5 15375.6
432.5 16033.6
433.5 16440.8
434.5 17123.2
435.5 17895
436.5 17686.2
437.5 17705.6
438.5 17757.8
439.5 17668.4
440.5 17604.6
441.5 17866
442.5 17562
443.5 17703.2
444.5 17996.2
445.5 17884.4
446.5 17380.2
447.5 17716.8
448.5 17713.6
449.5 17255.4
450.5 17435
451.5 17351.4
452.5 17350.4
453.5 17048.4
454.5 17009.4
455.5 17369.4
456.5 17399.6
457.5 16741.4
458.5 16896.6
459.5 16889.6
460.5 17166.4
461.5 17316
462.5 17377
463.5 17212.2
464.5 17542.8
465.5 17102.6
466.5 17397.6
467.5 17557.4
468.5 16929.8
469.5 17214.4
470.5 17485
471.5 17843.4
472.5 17920.2
473.5 18173.6
474.5 18215.4
475.5 18416.8
476.5 18518.8
477.5 19092.8
478.5 18849.6
479.5 18357.2
480.5 18521
481.5 18123
482.5 17976.6
483.5 17779.2
484.5 17519.4
485.5 16921.4
486.5 16830.6
487.5 16736
488.5 16586.6
489.5 16361
490.5 16708
491.5 16776.8
492.5 16796.2
493.5 16581.8
494.5 16425.6
495.5 16316.8
496.5 16604.2
497.5 16268.4
498.5 16335.2
499.5 16404.2
500.5 16557.4
501.5 16866.8
502.5 17035.4
503.5 17767.8
504.5 17750
505.5 18556.2
506.5 22306
507.5 30310.2
508.5 49113.6
509.5 84619.8
510.5 119531
511.5 116244
512.5 79189.8
513.5 42668.8
514.5 24010
515.5 18206.6
516.5 16288.8
517.5 15613.8
518.5 15255
519.5 14891
520.5 14783.8
521.5 15047.6
522.5 14485.2
523.5 14874.6
524.5 14741.8
525.5 14655.4
526.5 14689.2
527.5 14910.4
528.5 14477.2
529.5 14675.6
530.5 14853.8
531.5 14733.6
532.5 14856.4
533.5 14539.6
534.5 14548.8
535.5 14146.4
536.5 14874
537.5 14416.8
538.5 14350.6
539.5 14325.8
540.5 14211.4
541.5 14556.2
542.5 14309.6
543.5 14663
544.5 14914.4
545.5 15498.4
546.5 15062.4
547.5 14526
548.5 13912.4
549.5 13951.6
550.5 13558.8
551.5 13085.2
552.5 13350.4
553.5 14246
554.5 14700.4
555.5 16210.2
556.5 16516.6
557.5 15642.6
558.5 15484.2
559.5 15492.6
560.5 15400
561.5 15125.6
562.5 14767.4
563.5 14006.4
564.5 13864.2
565.5 13248.8
566.5 13569
567.5 13316.4
568.5 13732.4
569.5 14242.4
570.5 14148
571.5 14299.2
572.5 13840.8
573.5 14307.4
574.5 14380.8
575.5 14303.4
576.5 14239.2
577.5 14023.6
578.5 13831.8
579.5 13709
580.5 13828.8
581.5 13821
582.5 14378.2
583.5 15105.2
584.5 14742.8
585.5 14106
586.5 13826.8
587.5 13890.2
588.5 14136
589.5 13895.4
590.5 13841.4
591.5 13707
592.5 13738.2
593.5 13695.6
594.5 14013.4
595.5 13831.6
596.5 14262.6
597.5 13693.8
598.5 14010.8
599.5 14078.2
600.5 13879.8
601.5 13872
602.5 13799.4
603.5 13885.6
604.5 13909.4
605.5 13565.4
606.5 13952.2
607.5 14147.2
608.5 14122.8
609.5 13798.6
610.5 13707.8
611.5 13798.2
612.5 14035.6
613.5 13844
614.5 13988.4
615.5 13969
616.5 13829
617.5 13897.8
618.5 13883.4
619.5 13992
620.5 13765.4
621.5 13979.2
622.5 14177
623.5 13735.6
624.5 13780.2
625.5 14277
626.5 13912.6
627.5 13396
628.5 12784.6
629.5 13350.6
630.5 13794.2
631.5 13776.2
632.5 13771.6
633.5 14048.4
634.5 13633.6
635.5 13980.2
636.5 13691.2
637.5 13853
638.5 14168.8
639.5 13534
640.5 13808.4
641.5 13707.6
642.5 13525
643.5 13745
644.5 14038
645.5 14347.6
646.5 14614.2
647.5 13942.4
648.5 14248.6
649.5 14432.2
650.5 14488.6
651.5 16833
652.5 24808.8
653.5 33097.6
654.5 25667.8
655.5 16990.6
656.5 14471.2
657.5 13796.4
658.5 13882.6
659.5 13505.4
660.5 13538.8
661.5 13860.4
662.5 13932
663.5 13904.2
664.5 14068
665.5 14276
666.5 13688.8
667.5 13872.6
668.5 13769
669.5 13456.4
670.5 13696.8
671.5 13499
672.5 13562.2
673.5 13609.6
674.5 13463.4
675.5 13617.6
676.5 13794.2
677.5 13955.2
678.5 13625.6
679.5 13979
680.5 13719.2
681.5 13780.6
682.5 13824.6
683.5 13716.4
684.5 13897.2
685.5 13883.4
686.5 13790.4
687.5 13924.4
688.5 13874
689.5 14040.8
690.5 13731.4
691.5 13791.8
692.5 13822.4
693.5 13315.6
694.5 13583.8
695.5 13772.4
696.5 13596.4
697.5 13475.2
698.5 13576.2
699.5 13816
700.5 14165.2
701.5 14012.6
702.5 14232.2
703.5 14216.2
704.5 14107.8
705.5 14490.2
706.5 14194
707.5 13923.2
708.5 14174.4
709.5 13577.8
710.5 13306.4
711.5 13119.6
712.5 13593
713.5 13524
714.5 13777.8
715.5 13794
716.5 13772
717.5 14097
718.5 13901.2
719.5 13959.6
720.5 13606.4
721.5 13486.2
722.5 14007.4
723.5 13688.8
724.5 14268.6
725.5 13643.4
726.5 14655
727.5 15257.4
728.5 14811.4
729.5 14406.6
730.5 14194
731.5 13868
732.5 14070.4
733.5 14207
734.5 14669.6
735.5 14520.6
736.5 14134.8
737.5 14244.8
738.5 14439
739.5 14204.4
740.5 13997.2
741.5 13815.6
742.5 13790
743.5 13991
744.5 13689.2
745.5 14090.6
746.5 14014.6
747.5 13930.2
748.5 14337.6
749.5 14219.4
750.5 14333.2
751.5 14349.6
752.5 13755.2
753.5 14132.4
754.5 14320.4
755.5 13974.2
756.5 14263
757.5 14054.6
758.5 14112.8
759.5 14218.4
760.5 14897.8
761.5 14983.2
762.5 14588.8
763.5 14201.8
764.5 14263
765.5 14642
766.5 14509.8
767.5 14373.8
768.5 14556.8
769.5 14774.2
770.5 14487.6
771.5 14330.8
772.5 14571.6
773.5 14585.8
774.5 14276.6
775.5 14439.4
776.5 14325.8
777.5 14399.2
778.5 14528.4
779.5 14336.2
780.5 14562.8
781.5 14404.8
782.5 14249.6
783.5 14326.4
784.5 14519.2
785.5 14379.6
786.5 14672.8
787.5 14618.4
788.5 14655.4
789.5 14577.2
790.5 14681.2
791.5 14446
792.5 14600.8
793.5 14632.2
794.5 15256.4
795.5 14802.2
796.5 15172.2
797.5 15117.4
798.5 15268.6
799.5 15171.4
800.5 15200.6
801.5 14915.2
802.5 14636
803.5 14672.4
804.5 14629.8
805.5 14888.2
806.5 14889.2
807.5 15470.8
808.5 15340
809.5 15337
810.5 15370.2
811.5 15491.4
812.5 15620.2
813.5 15476.4
814.5 15486.2
815.5 15403.8
816.5 15223.4
817.5 15130.6
818.5 14753.6
819.5 15112.2
820.5 15119.2
821.5 15381.4
822.5 15672.4
823.5 15795.4
824.5 15618.4
825.5 15644.8
826.5 15645.4
827.5 15729.6
828.5 15606.4
829.5 15895.6
830.5 16002.8
831.5 15691.6
832.5 15800.4
833.5 15776.8
834.5 15849.4
835.5 15955.2
836.5 16268
837.5 16870.2
838.5 16739.8
839.5 16582.8
840.5 16028.6
841.5 16239.2
842.5 16272.4
843.5 16184.2
844.5 16259.6
845.5 16472.4
846.5 16667.8
847.5 16874.4
848.5 16720.6
849.5 16936.6
850.5 17410.6
851.5 17445.4
852.5 16785.6
853.5 16885.2
854.5 16893.2
855.5 16673.2
856.5 16969.2
857.5 17075.2
858.5 17140.8
859.5 17119
860.5 17435
861.5 17242.8
862.5 17570.2
863.5 17240.4
864.5 17558.2
865.5 17815.8
866.5 17964.6
867.5 17815.8
868.5 17468.4
869.5 17350.2
870.5 17562.8
871.5 18292.6
872.5 18222.6
873.5 18209.6
874.5 18234.2
875.5 18413.8
876.5 18164.4
877.5 18694.6
878.5 18769.4
879.5 19029.2
880.5 18923.8
881.5 19362.2
882.5 19477.2
883.5 19322
884.5 19606
885.5 20166.2
886.5 19878
887.5 20126.2
888.5 20223.8
889.5 20413
890.5 20173.8
891.5 20327.8
892.5 20595
893.5 20885
894.5 20935
895.5 21026
896.5 21291.4
897.5 21542
898.5 21569.6
899.5 22112.4
900.5 21767
901.5 22138.6
902.5 22024.2
903.5 22699
904.5 22752.2
905.5 22911.8
906.5 22983.2
907.5 23292.4
908.5 22956.2
909.5 23499.6
910.5 23372.2
911.5 23576.2
912.5 23518
913.5 23411.6
914.5 23116.8
915.5 23359.2
916.5 23178.4
917.5 22374.6
918.5 21732
919.5 21627.6
920.5 21058
921.5 21181.2
922.5 20800.6
923.5 20656
924.5 20756
925.5 20780.6
926.5 20779
927.5 20705
928.5 20913
929.5 20753.2
930.5 20737.8
931.5 20924.6
932.5 20940.8
933.5 20546.4
934.5 20753.4
935.5 20735.6
936.5 21132.2
937.5 20946
938.5 21162.6
939.5 21097.2
940.5 20743.4
941.5 20778
942.5 20837.6
943.5 20798.6
944.5 20456
945.5 20352.8
946.5 19482.4
947.5 18887.2
948.5 18560
949.5 17880
950.5 17483.8
951.5 16967
952.5 16862.4
953.5 16444.4
954.5 16276.8
955.5 16281.8
956.5 15671.4
957.5 15912.8
958.5 15938.8
959.5 15930.6
960.5 15842.6
961.5 15342.4
962.5 15495.4
963.5 15538.8
964.5 15472
965.5 15118.4
966.5 15216.8
967.5 15137.2
968.5 14579.4
969.5 14627.6
970.5 14550.2
971.5 14664.4
972.5 14315
973.5 14374.4
974.5 14728.2
975.5 14302.4
976.5 14172
977.5 14267.8
978.5 14320.2
979.5 13836.6
980.5 13942.2
981.5 13944.4
982.5 13831.4
983.5 14305.8
984.5 13620
985.5 13523.2
986.5 13430.6
987.5 13270.2
988.5 13194.8
989.5 13317.6
990.5 13196.8
991.5 13061.4
992.5 12878.8
993.5 13086.8
994.5 13007.2
995.5 12969
996.5 12962.6
997.5 12526.6
998.5 12714
999.5 12714
1000.5 12799
1001.5 12804.2
1002.5 11755
1003.5 11901
1004.5 12058
1005.5 11658
1006.5 11724
1007.5 11899
1008.5 11619.2
1009.5 11539
1010.5 11786.6
1011.5 11722.6
1012.5 11505.2
1013.5 11275.4
1014.5 11416.2
1015.5 11050.8
1016.5 11016.4
1017.5 10990.6
1018.5 10806
1019.5 10628.2
1020.5 10790.2
1021.5 10597.4
1022.5 10787.4
1023.5 10947.6
1024.5 10811
1025.5 10668.8
1026.5 10226.2
1027.5 10219
1028.5 10164.8
1029.5 9982
1030.5 9688.4
1031.5 10053.4
1032.5 9752.2
1033.5 9833.6
1034.5 9853.6
1035.5 9579
1036.5 9353
1037.5 9413
1038.5 9514.8
1039.5 9449.8
1040.5 9418
1041.5 9443.4
1042.5 9029.4
1043.5 8810.6
1044.5 9036.8
1045.5 8873
1046.5 8821.4
1047.5 8745.4
1048.5 8808.8
1049.5 8657.2
1050.5 8588
1051.5 8472.2
1052.5 8648.4
1053.5 8493.2
1054.5 8514.4
1055.5 8478.2
1056.5 8536.8
1057.5 8373
1058.5 8330.4
1059.5 8103.6
1060.5 8116
1061.5 8144
1062.5 7846.2
1063.5 8025.4
1064.5 8364.8
1065.5 8147.4
1066.5 7937
1067.5 7830
1068.5 7712.4
1069.5 8084.2
1070.5 8083.4
1071.5 8350.6
1072.5 8872.4
1073.5 9317
1074.5 10163.6
1075.5 8731
1076.5 7995.2
1077.5 7765.8
1078.5 7710.4
1079.5 7686.6
1080.5 7524.2
1081.5 7501
1082.5 7168.2
1083.5 7525.2
1084.5 7447.4
1085.5 7490.2
1086.5 7636.4
1087.5 7706.6
1088.5 7549.4
1089.5 7555.6
1090.5 7662.8
1091.5 7503.8
1092.5 7508.4
1093.5 7554.6
1094.5 7332
1095.5 7656.4
1096.5 7569.8
1097.5 7702.6
1098.5 7414.2
1099.5 7338.4
1100.5 7581
1101.5 7438
1102.5 7484.6
1103.5 7400.2
1104.5 7492.4
1105.5 7542
1106.5 7349.4
1107.5 7154.8
1108.5 7400.2
1109.5 7370.4
1110.5 7574.6
1111.5 7471.2
1112.5 7579
1113.5 7684.2
1114.5 7897
1115.5 7970.6
1116.5 8006.8
1117.5 7691.6
1118.5 7858.8
1119.5 8070.4
1120.5 8519.2
1121.5 10680.4
1122.5 24164.4
1123.5 89794.6
1124.5 325211
1125.5 783709
1126.5 886927
1127.5 411187
1128.5 92781.4
1129.5 21009.6
1130.5 9300.8
1131.5 6496.4
1132.5 6053.4
1133.5 5739.8
1134.5 5699.8
1135.5 5915.4
1136.5 6026
1137.5 6039.6
1138.5 5661.4
1139.5 5258.4
1140.5 4764.2
1141.5 4716.8
1142.5 4908
1143.5 5254.6
1144.5 5930.6
1145.5 6428.8
1146.5 7015.4
1147.5 7084.2
1148.5 7008.4
1149.5 6888.4
1150.5 6867.6
1151.5 7346.6
1152.5 9598.2
1153.5 25822
1154.5 103728
1155.5 367772
1156.5 817064
1157.5 837389
1158.5 351954
1159.5 75252
1160.5 16782.6
1161.5 6404.8
1162.5 4448.6
1163.5 3821
1164.5 3816.4
1165.5 3779
1166.5 3405.4
1167.5 3255
1168.5 3342.4
1169.5 3114.8
1170.5 3224.8
1171.5 3133.4
1172.5 3271.4
1173.5 3129.2
1174.5 3035
1175.5 3052
1176.5 2955.2
1177.5 2789.8
1178.5 2861.4
1179.5 3213.8
1180.5 3089
1181.5 3222.4
1182.5 3110
1183.5 3098.8
1184.5 3335.8
1185.5 3343
1186.5 3244.6
1187.5 3329
1188.5 3316.8
1189.5 3300.2
1190.5 3483
1191.5 3593
1192.5 3371.8
1193.5 2990
1194.5 3054.2
1195.5 2991.4
1196.5 3089.4
1197.5 3460.2
1198.5 3385.2
1199.5 3223.6
1200.5 2944.6
1201.5 3140.6
1202.5 3383.2
1203.5 3414.4
1204.5 3551.4
1205.5 4608.8
1206.5 7208.2
1207.5 7659
1208.5 5429
1209.5 3599.6
1210.5 3255
1211.5 3057.8
1212.5 3538.4
1213.5 3869.2
1214.5 4914
1215.5 4564.6
1216.5 3816.4
1217.5 3196
1218.5 3159
1219.5 3128.8
1220.5 3056
1221.5 3287.2
1222.5 3067.2
1223.5 3462.8
1224.5 5263.6
1225.5 9821.6
1226.5 16984.4
1227.5 16791.2
1228.5 8519
1229.5 4339
1230.5 3300.6
1231.5 3135.4
1232.5 3246.2
1233.5 3270
1234.5 3305.4
1235.5 3275.6
1236.5 3106.6
1237.5 3235
1238.5 3075.4
1239.5 3046.6
1240.5 3061
1241.5 3093.8
1242.5 3105.2
1243.5 3088.8
1244.5 2888.4
1245.5 3343.8
1246.5 3205.4
1247.5 3362.2
1248.5 3078
1249.5 3026.6
1250.5 3020.8
1251.5 3175.2
1252.5 3147
1253.5 3122.2
1254.5 2970.8
1255.5 3031.4
1256.5 3073
1257.5 3055.8
1258.5 3072.6
1259.5 3196.2
1260.5 3471
1261.5 3592.8
1262.5 3296.4
1263.5 3240.6
1264.5 2972.6
1265.5 3250.8
1266.5 3281.2
1267.5 3149
1268.5 3279.6
1269.5 2960.4
1270.5 3150.2
1271.5 3116.4
1272.5 3008.8
1273.5 3032.4
1274.5 3235.4
1275.5 3388.4
1276.5 3361.8
1277.5 3236.6
1278.5 3348.8
1279.5 3230.8
1280.5 3101.8
1281.5 3197.8
1282.5 3412
1283.5 3349.2
1284.5 3263.2
1285.5 3042.8
1286.5 2963.8
1287.5 3000.8
1288.5 3182.4
1289.5 3238
1290.5 3264.4
1291.5 3301.8
1292.5 3390.6
1293.5 3354
1294.5 3338.8
1295.5 3251
1296.5 3275.6
1297.5 3109.6
1298.5 3133.2
1299.5 2943.4
1300.5 3243.6
1301.5 3096.6
1302.5 3228.4
1303.5 3190.8
1304.5 3073.4
1305.5 2937.4
1306.5 3089.2
1307.5 3148.8
1308.5 3209.2
1309.5 3301.8
1310.5 3327.8
1311.5 3343.6
1312.5 3294.2
1313.5 3173.4
1314.5 3114
1315.5 3337.8
1316.5 3147.2
1317.5 3190
1318.5 3275
1319.5 3033.8
1320.5 3261.6
1321.5 3105
1322.5 3401.2
1323.5 3327.4
1324.5 3247
1325.5 3443.2
1326.5 3221.8
1327.5 3092
1328.5 3491.4
1329.5 3457.2
1330.5 3621.2
1331.5 3591.6
1332.5 3308.8
1333.5 3181
1334.5 3033.4
1335.5 3065
1336.5 3144.2
1337.5 3162
1338.5 3228.2
1339.5 3125.4
1340.5 3181.4
1341.5 3374.2
1342.5 3381
1343.5 3149
1344.5 3296.8
1345.5 3424
1346.5 3531.8
1347.5 3678.8
1348.5 3521.2
1349.5 3426
1350.5 3269.2
1351.5 3381
1352.5 3486
1353.5 3363
1354.5 3326.4
1355.5 3392.8
1356.5 3232.8
1357.5 3258
1358.5 3346.4
1359.5 4129.4
1360.5 4892
1361.5 5351.8
1362.5 5180.8
1363.5 4328.8
1364.5 3622
1365.5 3440.6
1366.5 3447.2
1367.5 3363.4
1368.5 3259.6
1369.5 3360.6
1370.5 3239.8
1371.5 3500.6
1372.5 3390.4
1373.5 3363.2
1374.5 3452.6
1375.5 3457.2
1376.5 3526.4
1377.5 3455.4
1378.5 3385.2
1379.5 3437.8
1380.5 3290.6
1381.5 3454.4
1382.5 3471.2
1383.5 3510.4
1384.5 3742
1385.5 3739.4
1386.5 3574.2
1387.5 3449.6
1388.5 3577.2
1389.5 3471.8
1390.5 3431.4
1391.5 3565.8
1392.5 3398.8
1393.5 3252.4
1394.5 3504.4
1395.5 3734
1396.5 3612.6
1397.5 3481.8
1398.5 3510.2
1399.5 3628.8
1400.5 3516
1401.5 3440.6
1402.5 3496.8
1403.5 3351
1404.5 3490.2
1405.5 3619.6
1406.5 3648.4
1407.5 3898.6
1408.5 3800.8
1409.5 3542.2
1410.5 3597.8
1411.5 3499.8
1412.5 3680.8
1413.5 3715
1414.5 3543.6
1415.5 3839.4
1416.5 3798.6
1417.5 3852.8
1418.5 3943
1419.5 3934
1420.5 3908
1421.5 3712.2
1422.5 3674.2
1423.5 3630.4
1424.5 3494.6
1425.5 3599.2
1426.5 3631.4
1427.5 3537.2
1428.5 3490
1429.5 3283
1430.5 3596.6
1431.5 3406.6
1432.5 3370
1433.5 3319.6
1434.5 3339.2
1435.5 3332.8
1436.5 3294.2
1437.5 3248.4
1438.5 3540.2
1439.5 3672.4
1440.5 3978.8
1441.5 5296.2
1442.5 6905.4
1443.5 6498.8
1444.5 4501.6
1445.5 3629.6
1446.5 3246
1447.5 3250.8
1448.5 3105.8
1449.5 3177.6
1450.5 3236.2
1451.5 3204.6
1452.5 3257.8
1453.5 3392.6
1454.5 3166.4
1455.5 3387.8
1456.5 3186.6
1457.5 3171
1458.5 3274.6
1459.5 3173.2
1460.5 3293.8
1461.5 3194.4
1462.5 3251
1463.5 3173
