# EGG_TotProjX
# X axis : Energy (keV) [X axis]
# Y axis : Counts/1 keV
# N Bins : 12000
# X Min : 0
# X Max : 12000
# X value at the center of the bins
0.5 0
1.5 0
2.5 0
3.5 0
4.5 0
5.5 263867
6.5 256291
7.5 266719
8.5 259813
9.5 217217
10.5 197916
11.5 221036
12.5 266232
13.5 331056
14.5 414676
15.5 519580
16.5 644621
17.5 805949
18.5 1.00178e+06
19.5 1.24115e+06
20.5 1.50836e+06
21.5 1.80032e+06
22.5 2.1307e+06
23.5 2.513e+06
24.5 2.85121e+06
25.5 3.14356e+06
26.5 3.48886e+06
27.5 3.84108e+06
28.5 4.16355e+06
29.5 4.49035e+06
30.5 4.86658e+06
31.5 5.22402e+06
32.5 5.50394e+06
33.5 5.59881e+06
34.5 5.7286e+06
35.5 5.94619e+06
36.5 6.22242e+06
37.5 6.44249e+06
38.5 6.56702e+06
39.5 6.714e+06
40.5 6.9573e+06
41.5 7.70528e+06
42.5 9.04578e+06
43.5 8.98843e+06
44.5 7.43509e+06
45.5 6.88201e+06
46.5 6.90979e+06
47.5 7.12582e+06
48.5 7.54918e+06
49.5 7.57337e+06
50.5 7.24757e+06
51.5 7.09679e+06
52.5 7.15885e+06
53.5 7.23764e+06
54.5 7.18909e+06
55.5 7.19214e+06
56.5 7.38167e+06
57.5 8.09302e+06
58.5 9.10659e+06
59.5 9.49552e+06
60.5 8.34684e+06
61.5 7.45101e+06
62.5 7.33986e+06
63.5 7.37786e+06
64.5 7.42993e+06
65.5 7.58606e+06
66.5 8.0413e+06
67.5 8.46159e+06
68.5 8.06513e+06
69.5 7.82112e+06
70.5 7.63105e+06
71.5 7.61626e+06
72.5 7.86831e+06
73.5 8.82092e+06
74.5 1.10328e+07
75.5 1.19907e+07
76.5 1.28612e+07
77.5 1.3992e+07
78.5 1.04567e+07
79.5 9.27744e+06
80.5 8.45381e+06
81.5 7.53976e+06
82.5 7.42649e+06
83.5 7.57623e+06
84.5 7.75923e+06
85.5 8.15278e+06
86.5 9.51256e+06
87.5 1.04737e+07
88.5 9.44518e+06
89.5 8.99065e+06
90.5 8.46054e+06
91.5 7.77501e+06
92.5 7.59943e+06
93.5 7.62184e+06
94.5 7.66431e+06
95.5 7.73357e+06
96.5 7.77658e+06
97.5 7.82117e+06
98.5 7.86358e+06
99.5 7.92971e+06
100.5 7.99414e+06
101.5 8.07025e+06
102.5 8.14354e+06
103.5 8.25686e+06
104.5 8.40686e+06
105.5 8.4664e+06
106.5 8.47395e+06
107.5 8.54202e+06
108.5 8.60988e+06
109.5 8.68441e+06
110.5 8.75419e+06
111.5 8.80931e+06
112.5 8.87654e+06
113.5 8.94031e+06
114.5 9.00492e+06
115.5 9.07233e+06
116.5 9.15109e+06
117.5 9.21674e+06
118.5 9.30417e+06
119.5 9.36462e+06
120.5 9.42404e+06
121.5 9.49277e+06
122.5 9.57017e+06
123.5 9.64409e+06
124.5 9.6963e+06
125.5 9.75847e+06
126.5 9.8061e+06
127.5 9.86687e+06
128.5 9.91621e+06
129.5 9.97575e+06
130.5 1.00102e+07
131.5 1.00621e+07
132.5 1.01109e+07
133.5 1.01651e+07
134.5 1.02203e+07
135.5 1.02752e+07
136.5 1.02799e+07
137.5 1.03385e+07
138.5 1.03962e+07
139.5 1.04986e+07
140.5 1.05412e+07
141.5 1.04728e+07
142.5 1.04911e+07
143.5 1.05255e+07
144.5 1.05525e+07
145.5 1.05871e+07
146.5 1.061e+07
147.5 1.06363e+07
148.5 1.06584e+07
149.5 1.06744e+07
150.5 1.07124e+07
151.5 1.07297e+07
152.5 1.07476e+07
153.5 1.07641e+07
154.5 1.07798e+07
155.5 1.07968e+07
156.5 1.08226e+07
157.5 1.08411e+07
158.5 1.08629e+07
159.5 1.08832e+07
160.5 1.08897e+07
161.5 1.08989e+07
162.5 1.09356e+07
163.5 1.09246e+07
164.5 1.09503e+07
165.5 1.12673e+07
166.5 1.21617e+07
167.5 1.20094e+07
168.5 1.11486e+07
169.5 1.09641e+07
170.5 1.0995e+07
171.5 1.11024e+07
172.5 1.16661e+07
173.5 1.45279e+07
174.5 1.78936e+07
175.5 1.40319e+07
176.5 1.13171e+07
177.5 1.09284e+07
178.5 1.08524e+07
179.5 1.09029e+07
180.5 1.13648e+07
181.5 1.30241e+07
182.5 1.34133e+07
183.5 1.14973e+07
184.5 1.08154e+07
185.5 1.07527e+07
186.5 1.07298e+07
187.5 1.06681e+07
188.5 1.06332e+07
189.5 1.06065e+07
190.5 1.05912e+07
191.5 1.05773e+07
192.5 1.0548e+07
193.5 1.05338e+07
194.5 1.05136e+07
195.5 1.04977e+07
196.5 1.05162e+07
197.5 1.06448e+07
198.5 1.10151e+07
199.5 1.123e+07
200.5 1.08194e+07
201.5 1.07961e+07
202.5 1.07938e+07
203.5 1.05003e+07
204.5 1.04083e+07
205.5 1.04026e+07
206.5 1.0417e+07
207.5 1.04742e+07
208.5 1.05515e+07
209.5 1.06758e+07
210.5 1.08792e+07
211.5 1.09342e+07
212.5 1.08071e+07
213.5 1.07054e+07
214.5 1.06459e+07
215.5 1.05862e+07
216.5 1.05308e+07
217.5 1.04725e+07
218.5 1.0432e+07
219.5 1.03751e+07
220.5 1.03514e+07
221.5 1.02807e+07
222.5 1.01935e+07
223.5 1.01744e+07
224.5 1.01577e+07
225.5 1.00895e+07
226.5 1.00198e+07
227.5 9.99e+06
228.5 9.94784e+06
229.5 9.9225e+06
230.5 9.88376e+06
231.5 9.84472e+06
232.5 9.80279e+06
233.5 9.77288e+06
234.5 9.7446e+06
235.5 9.70432e+06
236.5 9.67046e+06
237.5 9.62547e+06
238.5 9.59417e+06
239.5 9.56376e+06
240.5 9.52142e+06
241.5 9.47037e+06
242.5 9.44441e+06
243.5 9.39675e+06
244.5 9.35123e+06
245.5 9.31139e+06
246.5 9.27174e+06
247.5 9.21655e+06
248.5 9.15136e+06
249.5 9.10331e+06
250.5 9.06756e+06
251.5 9.0458e+06
252.5 9.06529e+06
253.5 9.03152e+06
254.5 8.9215e+06
255.5 8.89628e+06
256.5 8.7944e+06
257.5 8.6769e+06
258.5 8.60605e+06
259.5 8.55092e+06
260.5 8.51136e+06
261.5 8.47251e+06
262.5 8.48446e+06
263.5 8.54511e+06
264.5 8.44852e+06
265.5 8.31316e+06
266.5 8.24344e+06
267.5 8.18784e+06
268.5 8.14231e+06
269.5 8.11309e+06
270.5 8.1121e+06
271.5 8.08916e+06
272.5 8.05114e+06
273.5 8.00005e+06
274.5 7.93951e+06
275.5 7.90264e+06
276.5 7.95288e+06
277.5 8.01702e+06
278.5 7.93249e+06
279.5 7.82412e+06
280.5 7.76502e+06
281.5 7.71552e+06
282.5 7.68876e+06
283.5 7.68305e+06
284.5 7.6435e+06
285.5 7.59122e+06
286.5 7.55057e+06
287.5 7.52572e+06
288.5 7.501e+06
289.5 7.476e+06
290.5 7.44154e+06
291.5 7.42714e+06
292.5 7.41408e+06
293.5 7.38444e+06
294.5 7.36743e+06
295.5 7.38813e+06
296.5 7.44916e+06
297.5 7.48407e+06
298.5 7.57478e+06
299.5 7.60728e+06
300.5 7.35185e+06
301.5 7.20011e+06
302.5 7.15888e+06
303.5 7.13941e+06
304.5 7.13694e+06
305.5 7.11544e+06
306.5 7.09815e+06
307.5 7.06692e+06
308.5 7.04613e+06
309.5 7.01412e+06
310.5 6.98928e+06
311.5 6.98386e+06
312.5 6.99613e+06
313.5 6.99034e+06
314.5 6.93141e+06
315.5 6.88058e+06
316.5 6.84158e+06
317.5 6.81525e+06
318.5 6.78819e+06
319.5 6.76786e+06
320.5 6.7474e+06
321.5 6.74816e+06
322.5 6.736e+06
323.5 6.74407e+06
324.5 6.80926e+06
325.5 6.93289e+06
326.5 6.89758e+06
327.5 6.74803e+06
328.5 6.63498e+06
329.5 6.595e+06
330.5 6.58787e+06
331.5 6.57386e+06
332.5 6.53805e+06
333.5 6.51697e+06
334.5 6.49401e+06
335.5 6.46258e+06
336.5 6.43073e+06
337.5 6.37596e+06
338.5 6.3205e+06
339.5 6.28013e+06
340.5 6.2417e+06
341.5 6.23899e+06
342.5 6.17062e+06
343.5 6.06526e+06
344.5 6.00174e+06
345.5 5.95555e+06
346.5 5.92191e+06
347.5 5.92526e+06
348.5 6.0759e+06
349.5 6.22117e+06
350.5 6.04291e+06
351.5 5.88056e+06
352.5 5.80606e+06
353.5 5.79858e+06
354.5 5.83416e+06
355.5 5.76488e+06
356.5 5.68301e+06
357.5 5.65945e+06
358.5 5.63972e+06
359.5 5.59778e+06
360.5 5.5685e+06
361.5 5.54533e+06
362.5 5.52569e+06
363.5 5.50988e+06
364.5 5.50012e+06
365.5 5.51058e+06
366.5 5.62035e+06
367.5 6.17931e+06
368.5 6.56556e+06
369.5 5.915e+06
370.5 5.47236e+06
371.5 5.40738e+06
372.5 5.46442e+06
373.5 5.43697e+06
374.5 5.38225e+06
375.5 5.33496e+06
376.5 5.27685e+06
377.5 5.25425e+06
378.5 5.23242e+06
379.5 5.21607e+06
380.5 5.20975e+06
381.5 5.19742e+06
382.5 5.17582e+06
383.5 5.14545e+06
384.5 5.13449e+06
385.5 5.10815e+06
386.5 5.09502e+06
387.5 5.07458e+06
388.5 5.0918e+06
389.5 5.08297e+06
390.5 5.06698e+06
391.5 5.05017e+06
392.5 5.02858e+06
393.5 4.99565e+06
394.5 4.97842e+06
395.5 4.95675e+06
396.5 4.9484e+06
397.5 4.93625e+06
398.5 4.91668e+06
399.5 4.91491e+06
400.5 4.94807e+06
401.5 5.19236e+06
402.5 6.9974e+06
403.5 1.23366e+07
404.5 1.27504e+07
405.5 7.29969e+06
406.5 5.15007e+06
407.5 4.80122e+06
408.5 4.73802e+06
409.5 4.71784e+06
410.5 4.70672e+06
411.5 4.69181e+06
412.5 4.69463e+06
413.5 4.69359e+06
414.5 4.67294e+06
415.5 4.68741e+06
416.5 4.74492e+06
417.5 4.72216e+06
418.5 4.63685e+06
419.5 4.60492e+06
420.5 4.58841e+06
421.5 4.57643e+06
422.5 4.56772e+06
423.5 4.55351e+06
424.5 4.53358e+06
425.5 4.51787e+06
426.5 4.50722e+06
427.5 4.49646e+06
428.5 4.49702e+06
429.5 4.48628e+06
430.5 4.48465e+06
431.5 4.47391e+06
432.5 4.47935e+06
433.5 4.46896e+06
434.5 4.46996e+06
435.5 4.48031e+06
436.5 4.47787e+06
437.5 4.4354e+06
438.5 4.41344e+06
439.5 4.41755e+06
440.5 4.39592e+06
441.5 4.38741e+06
442.5 4.40244e+06
443.5 4.49024e+06
444.5 4.57409e+06
445.5 4.4726e+06
446.5 4.36801e+06
447.5 4.32873e+06
448.5 4.30736e+06
449.5 4.29428e+06
450.5 4.28159e+06
451.5 4.27753e+06
452.5 4.27364e+06
453.5 4.26653e+06
454.5 4.26927e+06
455.5 4.25677e+06
456.5 4.2659e+06
457.5 4.26408e+06
458.5 4.22392e+06
459.5 4.19958e+06
460.5 4.18764e+06
461.5 4.17986e+06
462.5 4.17255e+06
463.5 4.23038e+06
464.5 4.42625e+06
465.5 4.47281e+06
466.5 4.25015e+06
467.5 4.14813e+06
468.5 4.12989e+06
469.5 4.1339e+06
470.5 4.19117e+06
471.5 4.29095e+06
472.5 4.38788e+06
473.5 4.47717e+06
474.5 4.57584e+06
475.5 4.63522e+06
476.5 4.63846e+06
477.5 4.63571e+06
478.5 4.54048e+06
479.5 4.45116e+06
480.5 4.39839e+06
481.5 4.35653e+06
482.5 4.3195e+06
483.5 4.28227e+06
484.5 4.1592e+06
485.5 4.01238e+06
486.5 3.94418e+06
487.5 3.92587e+06
488.5 3.92507e+06
489.5 3.91647e+06
490.5 3.92833e+06
491.5 3.9587e+06
492.5 4.0088e+06
493.5 3.96782e+06
494.5 3.90048e+06
495.5 3.8772e+06
496.5 3.8842e+06
497.5 3.91277e+06
498.5 3.97987e+06
499.5 4.09438e+06
500.5 4.045e+06
501.5 3.93164e+06
502.5 3.95052e+06
503.5 4.01454e+06
504.5 4.17739e+06
505.5 4.74928e+06
506.5 6.11162e+06
507.5 8.81871e+06
508.5 1.38426e+07
509.5 2.17651e+07
510.5 2.82866e+07
511.5 2.65167e+07
512.5 1.76228e+07
513.5 9.50463e+06
514.5 5.63688e+06
515.5 4.47681e+06
516.5 4.61812e+06
517.5 4.55143e+06
518.5 4.04469e+06
519.5 3.9598e+06
520.5 3.72702e+06
521.5 3.48245e+06
522.5 3.39654e+06
523.5 3.38796e+06
524.5 3.38533e+06
525.5 3.37407e+06
526.5 3.35582e+06
527.5 3.35791e+06
528.5 3.3468e+06
529.5 3.34318e+06
530.5 3.36398e+06
531.5 3.45105e+06
532.5 3.46763e+06
533.5 3.38662e+06
534.5 3.33933e+06
535.5 3.31619e+06
536.5 3.29652e+06
537.5 3.30039e+06
538.5 3.34216e+06
539.5 3.35632e+06
540.5 3.31846e+06
541.5 3.29635e+06
542.5 3.28643e+06
543.5 3.27806e+06
544.5 3.29729e+06
545.5 3.30612e+06
546.5 3.28347e+06
547.5 3.2623e+06
548.5 3.25263e+06
549.5 3.24634e+06
550.5 3.23916e+06
551.5 3.2429e+06
552.5 3.25843e+06
553.5 3.27495e+06
554.5 3.30853e+06
555.5 3.44065e+06
556.5 3.49465e+06
557.5 3.36601e+06
558.5 3.27646e+06
559.5 3.25015e+06
560.5 3.24817e+06
561.5 3.24165e+06
562.5 3.23214e+06
563.5 3.22995e+06
564.5 3.23065e+06
565.5 3.24691e+06
566.5 3.2305e+06
567.5 3.21004e+06
568.5 3.19826e+06
569.5 3.18755e+06
570.5 3.18358e+06
571.5 3.17596e+06
572.5 3.1723e+06
573.5 3.17641e+06
574.5 3.18791e+06
575.5 3.186e+06
576.5 3.18415e+06
577.5 3.16778e+06
578.5 3.13951e+06
579.5 3.12978e+06
580.5 3.15373e+06
581.5 3.44514e+06
582.5 4.81202e+06
583.5 6.17726e+06
584.5 4.88359e+06
585.5 3.53439e+06
586.5 3.16208e+06
587.5 3.09188e+06
588.5 3.0856e+06
589.5 3.08381e+06
590.5 3.1017e+06
591.5 3.158e+06
592.5 3.26287e+06
593.5 3.45036e+06
594.5 3.80528e+06
595.5 4.16238e+06
596.5 3.80186e+06
597.5 3.28427e+06
598.5 3.12314e+06
599.5 3.07378e+06
600.5 3.0466e+06
601.5 3.0272e+06
602.5 3.02884e+06
603.5 3.04581e+06
604.5 3.12608e+06
605.5 3.27906e+06
606.5 3.29412e+06
607.5 3.26817e+06
608.5 3.22824e+06
609.5 3.11247e+06
610.5 3.04922e+06
611.5 3.02508e+06
612.5 3.00318e+06
613.5 2.98222e+06
614.5 2.98795e+06
615.5 2.98552e+06
616.5 2.98244e+06
617.5 2.99401e+06
618.5 2.98825e+06
619.5 3.00271e+06
620.5 3.0087e+06
621.5 2.9977e+06
622.5 2.99683e+06
623.5 2.96659e+06
624.5 2.95759e+06
625.5 3.02036e+06
626.5 3.4833e+06
627.5 5.6049e+06
628.5 8.11964e+06
629.5 6.3332e+06
630.5 3.86558e+06
631.5 3.11292e+06
632.5 2.987e+06
633.5 2.96406e+06
634.5 2.98613e+06
635.5 3.33178e+06
636.5 4.80033e+06
637.5 6.14913e+06
638.5 4.8032e+06
639.5 3.37881e+06
640.5 2.97479e+06
641.5 2.90382e+06
642.5 2.89043e+06
643.5 2.89928e+06
644.5 2.97047e+06
645.5 3.1511e+06
646.5 3.22852e+06
647.5 3.099e+06
648.5 3.2245e+06
649.5 4.43499e+06
650.5 6.46399e+06
651.5 6.06999e+06
652.5 4.2726e+06
653.5 3.64281e+06
654.5 3.8853e+06
655.5 4.85681e+06
656.5 4.59813e+06
657.5 3.45038e+06
658.5 2.97096e+06
659.5 2.91373e+06
660.5 2.99054e+06
661.5 3.09588e+06
662.5 3.06654e+06
663.5 3.25299e+06
664.5 4.00989e+06
665.5 4.14004e+06
666.5 3.42328e+06
667.5 3.06297e+06
668.5 2.93792e+06
669.5 2.91381e+06
670.5 2.90333e+06
671.5 2.85752e+06
672.5 2.82412e+06
673.5 2.81939e+06
674.5 2.81511e+06
675.5 2.81435e+06
676.5 2.80459e+06
677.5 2.81606e+06
678.5 2.83447e+06
679.5 2.82258e+06
680.5 2.82678e+06
681.5 2.89284e+06
682.5 2.92454e+06
683.5 2.86181e+06
684.5 2.81047e+06
685.5 2.82949e+06
686.5 2.89738e+06
687.5 2.89878e+06
688.5 2.83626e+06
689.5 2.7915e+06
690.5 2.79053e+06
691.5 2.80005e+06
692.5 2.79295e+06
693.5 2.76586e+06
694.5 2.76121e+06
695.5 2.76545e+06
696.5 2.81176e+06
697.5 2.84968e+06
698.5 2.81619e+06
699.5 2.77693e+06
700.5 2.78841e+06
701.5 2.82621e+06
702.5 2.87109e+06
703.5 2.87575e+06
704.5 2.83023e+06
705.5 2.79955e+06
706.5 2.80585e+06
707.5 2.85797e+06
708.5 2.86054e+06
709.5 2.79397e+06
710.5 2.75505e+06
711.5 2.73803e+06
712.5 2.73478e+06
713.5 2.72809e+06
714.5 2.72602e+06
715.5 2.72902e+06
716.5 2.73624e+06
717.5 2.72424e+06
718.5 2.71723e+06
719.5 2.71541e+06
720.5 2.72728e+06
721.5 2.75369e+06
722.5 2.79682e+06
723.5 2.79563e+06
724.5 2.8399e+06
725.5 3.09735e+06
726.5 3.32383e+06
727.5 3.13428e+06
728.5 2.86587e+06
729.5 2.77131e+06
730.5 2.75454e+06
731.5 2.74876e+06
732.5 2.75153e+06
733.5 2.74926e+06
734.5 2.75088e+06
735.5 2.74508e+06
736.5 2.78056e+06
737.5 2.88195e+06
738.5 2.88886e+06
739.5 2.78921e+06
740.5 2.74134e+06
741.5 2.73383e+06
742.5 2.74509e+06
743.5 2.7407e+06
744.5 2.73288e+06
745.5 2.73477e+06
746.5 2.77138e+06
747.5 2.81528e+06
748.5 2.81699e+06
749.5 2.79553e+06
750.5 2.77787e+06
751.5 2.7641e+06
752.5 2.74159e+06
753.5 2.73641e+06
754.5 2.74671e+06
755.5 2.75224e+06
756.5 2.77119e+06
757.5 2.82646e+06
758.5 3.24436e+06
759.5 5.69216e+06
760.5 1.17088e+07
761.5 1.27787e+07
762.5 6.983e+06
763.5 3.66078e+06
764.5 2.90724e+06
765.5 2.77002e+06
766.5 2.75533e+06
767.5 2.7589e+06
768.5 2.78492e+06
769.5 2.78679e+06
770.5 2.77146e+06
771.5 2.76032e+06
772.5 2.75089e+06
773.5 2.73903e+06
774.5 2.72761e+06
775.5 2.74087e+06
776.5 2.75365e+06
777.5 2.77087e+06
778.5 2.81666e+06
779.5 2.89686e+06
780.5 2.91681e+06
781.5 2.85221e+06
782.5 2.8041e+06
783.5 2.78904e+06
784.5 2.8657e+06
785.5 3.10855e+06
786.5 3.24602e+06
787.5 3.24642e+06
788.5 3.21411e+06
789.5 2.98524e+06
790.5 2.8262e+06
791.5 2.78591e+06
792.5 2.77612e+06
793.5 2.7672e+06
794.5 2.77128e+06
795.5 2.78023e+06
796.5 2.79485e+06
797.5 2.77438e+06
798.5 2.75481e+06
799.5 2.73764e+06
800.5 2.72884e+06
801.5 2.72984e+06
802.5 2.74445e+06
803.5 2.78167e+06
804.5 2.94004e+06
805.5 3.70814e+06
806.5 5.06533e+06
807.5 4.87422e+06
808.5 3.54687e+06
809.5 2.91674e+06
810.5 2.77799e+06
811.5 2.75321e+06
812.5 2.78032e+06
813.5 2.89599e+06
814.5 2.97348e+06
815.5 2.89596e+06
816.5 2.80091e+06
817.5 2.7662e+06
818.5 2.75969e+06
819.5 2.77312e+06
820.5 2.79111e+06
821.5 2.88585e+06
822.5 2.99126e+06
823.5 2.92511e+06
824.5 2.81005e+06
825.5 2.74671e+06
826.5 2.73723e+06
827.5 2.7423e+06
828.5 2.7537e+06
829.5 2.78362e+06
830.5 2.83964e+06
831.5 2.84777e+06
832.5 2.8017e+06
833.5 2.77431e+06
834.5 2.76879e+06
835.5 2.76102e+06
836.5 2.76793e+06
837.5 2.78199e+06
838.5 2.79968e+06
839.5 2.7946e+06
840.5 2.80893e+06
841.5 2.80605e+06
842.5 2.78905e+06
843.5 2.789e+06
844.5 2.80138e+06
845.5 2.82922e+06
846.5 2.85528e+06
847.5 2.83755e+06
848.5 2.8237e+06
849.5 2.84166e+06
850.5 2.86524e+06
851.5 2.87488e+06
852.5 2.8813e+06
853.5 2.86844e+06
854.5 2.83089e+06
855.5 2.83474e+06
856.5 2.84531e+06
857.5 2.87055e+06
858.5 2.8715e+06
859.5 2.86371e+06
860.5 2.86416e+06
861.5 2.86218e+06
862.5 2.87213e+06
863.5 2.91002e+06
864.5 2.98632e+06
865.5 3.0859e+06
866.5 3.36113e+06
867.5 4.33184e+06
868.5 6.325e+06
869.5 6.93786e+06
870.5 4.95672e+06
871.5 3.44575e+06
872.5 3.03941e+06
873.5 2.94359e+06
874.5 2.94771e+06
875.5 3.09742e+06
876.5 3.6508e+06
877.5 4.68136e+06
878.5 4.86502e+06
879.5 3.77572e+06
880.5 3.05364e+06
881.5 2.87102e+06
882.5 2.84904e+06
883.5 2.85384e+06
884.5 2.87313e+06
885.5 2.90725e+06
886.5 2.97072e+06
887.5 3.01384e+06
888.5 2.96423e+06
889.5 2.90769e+06
890.5 2.90846e+06
891.5 2.92438e+06
892.5 2.95552e+06
893.5 3.03373e+06
894.5 3.07784e+06
895.5 3.08489e+06
896.5 3.2113e+06
897.5 3.33968e+06
898.5 3.22288e+06
899.5 3.0719e+06
900.5 3.04519e+06
901.5 3.0502e+06
902.5 3.05883e+06
903.5 3.04673e+06
904.5 3.04713e+06
905.5 3.05457e+06
906.5 3.0673e+06
907.5 3.07977e+06
908.5 3.08741e+06
909.5 3.10076e+06
910.5 3.11552e+06
911.5 3.1301e+06
912.5 3.13799e+06
913.5 3.14921e+06
914.5 3.17077e+06
915.5 3.16802e+06
916.5 3.14353e+06
917.5 3.10324e+06
918.5 3.05097e+06
919.5 3.00937e+06
920.5 2.98919e+06
921.5 2.95967e+06
922.5 2.94664e+06
923.5 2.92518e+06
924.5 2.91528e+06
925.5 2.92107e+06
926.5 2.91933e+06
927.5 2.92942e+06
928.5 2.92608e+06
929.5 2.92704e+06
930.5 2.92804e+06
931.5 2.93923e+06
932.5 2.94633e+06
933.5 2.95469e+06
934.5 2.96819e+06
935.5 2.9942e+06
936.5 3.01627e+06
937.5 3.01996e+06
938.5 3.0261e+06
939.5 3.03057e+06
940.5 3.03417e+06
941.5 3.06444e+06
942.5 3.1525e+06
943.5 3.31003e+06
944.5 3.28958e+06
945.5 3.06102e+06
946.5 2.87559e+06
947.5 2.77332e+06
948.5 2.69763e+06
949.5 2.6237e+06
950.5 2.56551e+06
951.5 2.52116e+06
952.5 2.49134e+06
953.5 2.46256e+06
954.5 2.43531e+06
955.5 2.41287e+06
956.5 2.40152e+06
957.5 2.40403e+06
958.5 2.39916e+06
959.5 2.43546e+06
960.5 2.53029e+06
961.5 2.61499e+06
962.5 2.55591e+06
963.5 2.44217e+06
964.5 2.59916e+06
965.5 3.29354e+06
966.5 3.92352e+06
967.5 3.36978e+06
968.5 2.55613e+06
969.5 2.27383e+06
970.5 2.21162e+06
971.5 2.20269e+06
972.5 2.2192e+06
973.5 2.23527e+06
974.5 2.25124e+06
975.5 2.25765e+06
976.5 2.29345e+06
977.5 2.29498e+06
978.5 2.21921e+06
979.5 2.13992e+06
980.5 2.11956e+06
981.5 2.22508e+06
982.5 2.55566e+06
983.5 2.82904e+06
984.5 2.55362e+06
985.5 2.19735e+06
986.5 2.10026e+06
987.5 2.10782e+06
988.5 2.09434e+06
989.5 2.05393e+06
990.5 2.01875e+06
991.5 2.00579e+06
992.5 2.00766e+06
993.5 1.99025e+06
994.5 1.98282e+06
995.5 1.99359e+06
996.5 2.01306e+06
997.5 2.06162e+06
998.5 2.24793e+06
999.5 3.11438e+06
1000.5 6.24264e+06
1001.5 1.09597e+07
1002.5 1.01301e+07
1003.5 4.98678e+06
1004.5 2.51635e+06
1005.5 2.01047e+06
1006.5 1.95637e+06
1007.5 1.96843e+06
1008.5 1.90914e+06
1009.5 1.85132e+06
1010.5 1.82179e+06
1011.5 1.79572e+06
1012.5 1.7854e+06
1013.5 1.79967e+06
1014.5 1.83901e+06
1015.5 1.98284e+06
1016.5 2.2032e+06
1017.5 2.17055e+06
1018.5 1.98942e+06
1019.5 1.93989e+06
1020.5 1.86598e+06
1021.5 1.84796e+06
1022.5 2.13446e+06
1023.5 3.10873e+06
1024.5 4.37267e+06
1025.5 3.89769e+06
1026.5 2.42662e+06
1027.5 1.79462e+06
1028.5 1.66533e+06
1029.5 1.63228e+06
1030.5 1.61514e+06
1031.5 1.60737e+06
1032.5 1.60897e+06
1033.5 1.61146e+06
1034.5 1.61109e+06
1035.5 1.5983e+06
1036.5 1.58297e+06
1037.5 1.57771e+06
1038.5 1.58774e+06
1039.5 1.60619e+06
1040.5 1.58608e+06
1041.5 1.55769e+06
1042.5 1.53238e+06
1043.5 1.51466e+06
1044.5 1.52851e+06
1045.5 1.56625e+06
1046.5 1.57291e+06
1047.5 1.54879e+06
1048.5 1.62977e+06
1049.5 1.92582e+06
1050.5 2.23357e+06
1051.5 2.02281e+06
1052.5 1.63048e+06
1053.5 1.50241e+06
1054.5 1.52111e+06
1055.5 1.66352e+06
1056.5 1.85408e+06
1057.5 1.79022e+06
1058.5 1.55391e+06
1059.5 1.45956e+06
1060.5 1.42868e+06
1061.5 1.4215e+06
1062.5 1.44128e+06
1063.5 1.51483e+06
1064.5 1.60573e+06
1065.5 1.58642e+06
1066.5 1.49186e+06
1067.5 1.43014e+06
1068.5 1.413e+06
1069.5 1.42566e+06
1070.5 1.56846e+06
1071.5 2.34108e+06
1072.5 5.29886e+06
1073.5 1.14561e+07
1074.5 1.36985e+07
1075.5 7.42866e+06
1076.5 2.68892e+06
1077.5 1.56485e+06
1078.5 1.37951e+06
1079.5 1.34696e+06
1080.5 1.34216e+06
1081.5 1.33832e+06
1082.5 1.33101e+06
1083.5 1.32747e+06
1084.5 1.31434e+06
1085.5 1.31309e+06
1086.5 1.31445e+06
1087.5 1.31515e+06
1088.5 1.32071e+06
1089.5 1.3631e+06
1090.5 1.46792e+06
1091.5 1.52088e+06
1092.5 1.48016e+06
1093.5 1.44423e+06
1094.5 1.40841e+06
1095.5 1.43007e+06
1096.5 1.51098e+06
1097.5 1.52184e+06
1098.5 1.41649e+06
1099.5 1.36624e+06
1100.5 1.3899e+06
1101.5 1.39772e+06
1102.5 1.34556e+06
1103.5 1.31235e+06
1104.5 1.31942e+06
1105.5 1.35805e+06
1106.5 1.41512e+06
1107.5 1.4624e+06
1108.5 1.40362e+06
1109.5 1.31257e+06
1110.5 1.28036e+06
1111.5 1.28349e+06
1112.5 1.30146e+06
1113.5 1.33945e+06
1114.5 1.3574e+06
1115.5 1.35333e+06
